1.325999999999999922e-03
1.413999999999999892e-03
1.404999999999999999e-03
1.327000000000000055e-03
1.278000000000000056e-03
1.337000000000000081e-03
1.415999999999999941e-03
1.409000000000000096e-03
1.325999999999999922e-03
1.276000000000000007e-03
1.335000000000000032e-03
1.412999999999999977e-03
1.402000000000000034e-03
1.319000000000000077e-03
1.273999999999999959e-03
1.330000000000000019e-03
1.404000000000000083e-03
1.392999999999999924e-03
1.304000000000000038e-03
1.253999999999999906e-03
1.319000000000000077e-03
1.394000000000000057e-03
1.379999999999999933e-03
1.294000000000000011e-03
1.242000000000000048e-03
1.299000000000000024e-03
1.378000000000000102e-03
1.363999999999999978e-03
1.276000000000000007e-03
1.224000000000000045e-03
1.281999999999999936e-03
1.368999999999999991e-03
1.363999999999999978e-03
1.273000000000000043e-03
1.216000000000000067e-03
1.270999999999999994e-03
1.355000000000000085e-03
1.348000000000000023e-03
1.255000000000000039e-03
1.196999999999999930e-03
1.255000000000000039e-03
1.330999999999999935e-03
1.322999999999999957e-03
1.232000000000000022e-03
1.173999999999999913e-03
1.227000000000000009e-03
1.301999999999999989e-03
1.291000000000000047e-03
1.206000000000000041e-03
1.146000000000000100e-03
1.201000000000000028e-03
1.289999999999999914e-03
1.289999999999999914e-03
1.208000000000000089e-03
1.165000000000000020e-03
1.229999999999999974e-03
1.319999999999999993e-03
1.324000000000000090e-03
1.239000000000000084e-03
1.185000000000000072e-03
1.240999999999999916e-03
1.325000000000000006e-03
1.327000000000000055e-03
1.242999999999999964e-03
1.193999999999999966e-03
1.244000000000000097e-03
1.325000000000000006e-03
1.322000000000000041e-03
1.232999999999999938e-03
1.175000000000000046e-03
1.239000000000000084e-03
1.324000000000000090e-03
1.327000000000000055e-03
1.247999999999999977e-03
1.190000000000000085e-03
1.242999999999999964e-03
1.325999999999999922e-03
1.325999999999999922e-03
1.244000000000000097e-03
1.188999999999999953e-03
1.240999999999999916e-03
1.329000000000000103e-03
1.332000000000000068e-03
1.250000000000000026e-03
1.193999999999999966e-03
1.247000000000000062e-03
1.335999999999999948e-03
1.338999999999999913e-03
1.253999999999999906e-03
1.191999999999999917e-03
1.244000000000000097e-03
1.320999999999999909e-03
1.322000000000000041e-03
1.242999999999999964e-03
1.182000000000000108e-03
1.231000000000000106e-03
1.312999999999999931e-03
1.314000000000000064e-03
1.231000000000000106e-03
1.173999999999999913e-03
1.221999999999999996e-03
1.309000000000000051e-03
1.312999999999999931e-03
1.227999999999999925e-03
1.167000000000000069e-03
1.221000000000000080e-03
1.312000000000000015e-03
1.312000000000000015e-03
1.231000000000000106e-03
1.172000000000000082e-03
1.222999999999999912e-03
1.311000000000000099e-03
1.319000000000000077e-03
1.234000000000000071e-03
1.170999999999999949e-03
1.222999999999999912e-03
1.307000000000000002e-03
1.309000000000000051e-03
1.224000000000000045e-03
1.167000000000000069e-03
1.219000000000000031e-03
1.312999999999999931e-03
1.317999999999999944e-03
1.234000000000000071e-03
1.175999999999999962e-03
1.234000000000000071e-03
1.325000000000000006e-03
1.327000000000000055e-03
1.242999999999999964e-03
1.177000000000000095e-03
1.232999999999999938e-03
1.325000000000000006e-03
1.327000000000000055e-03
1.237999999999999951e-03
1.175000000000000046e-03
1.224999999999999960e-03
1.317999999999999944e-03
1.330999999999999935e-03
1.252999999999999991e-03
1.201000000000000028e-03
1.260999999999999968e-03
1.347000000000000107e-03
1.347000000000000107e-03
1.268999999999999946e-03
1.209000000000000005e-03
1.258999999999999920e-03
1.350999999999999987e-03
1.360000000000000098e-03
1.270000000000000078e-03
1.204999999999999908e-03
1.252999999999999991e-03
1.332999999999999984e-03
1.324000000000000090e-03
1.222999999999999912e-03
1.149000000000000065e-03
1.191999999999999917e-03
1.276000000000000007e-03
1.265999999999999981e-03
1.170000000000000033e-03
1.095999999999999969e-03
1.134000000000000025e-03
1.213000000000000102e-03
1.214999999999999934e-03
1.124999999999999915e-03
1.070999999999999903e-03
1.136000000000000074e-03
1.234000000000000071e-03
1.242000000000000048e-03
1.160000000000000007e-03
1.103000000000000031e-03
1.160000000000000007e-03
1.253999999999999906e-03
1.268000000000000030e-03
1.206000000000000041e-03
1.147000000000000016e-03
1.211000000000000054e-03
1.340000000000000045e-03
1.386000000000000079e-03
1.291999999999999963e-03
1.193000000000000050e-03
1.173999999999999913e-03
1.209999999999999921e-03
1.209999999999999921e-03
1.193000000000000050e-03
1.188999999999999953e-03
1.204999999999999908e-03
1.458000000000000095e-03
1.665000000000000030e-03
1.536000000000000039e-03
1.418999999999999906e-03
1.456000000000000046e-03
1.418999999999999906e-03
1.304000000000000038e-03
1.196999999999999930e-03
1.162999999999999971e-03
1.247000000000000062e-03
1.343000000000000010e-03
1.348999999999999939e-03
1.265999999999999981e-03
1.211000000000000054e-03
1.265000000000000065e-03
1.347000000000000107e-03
1.348000000000000023e-03
1.265000000000000065e-03
1.211000000000000054e-03
1.265000000000000065e-03
1.351999999999999903e-03
1.350000000000000071e-03
1.268999999999999946e-03
1.217999999999999899e-03
1.271999999999999910e-03
1.353999999999999952e-03
1.353999999999999952e-03
1.273000000000000043e-03
1.222999999999999912e-03
1.278999999999999972e-03
1.364999999999999894e-03
1.366999999999999943e-03
1.283000000000000069e-03
1.231000000000000106e-03
1.294999999999999927e-03
1.376999999999999969e-03
1.373000000000000088e-03
1.296999999999999976e-03
1.252000000000000075e-03
1.312999999999999931e-03
1.394000000000000057e-03
1.394000000000000057e-03
1.319000000000000077e-03
1.276000000000000007e-03
1.337000000000000081e-03
1.415000000000000025e-03
1.412000000000000061e-03
1.337999999999999997e-03
1.296999999999999976e-03
1.355000000000000085e-03
1.433999999999999945e-03
1.430999999999999980e-03
1.350000000000000071e-03
1.297999999999999892e-03
1.347000000000000107e-03
1.425000000000000051e-03
1.410000000000000012e-03
1.320999999999999909e-03
1.273000000000000043e-03
1.329000000000000103e-03
1.399000000000000070e-03
1.392000000000000008e-03
1.309000000000000051e-03
1.255000000000000039e-03
1.314999999999999980e-03
1.392000000000000008e-03
1.386000000000000079e-03
1.315999999999999896e-03
1.273999999999999959e-03
1.325999999999999922e-03
1.399000000000000070e-03
1.389999999999999960e-03
1.309000000000000051e-03
1.260999999999999968e-03
1.319000000000000077e-03
1.392999999999999924e-03
1.379000000000000017e-03
1.294999999999999927e-03
1.245000000000000013e-03
1.301999999999999989e-03
1.374000000000000004e-03
1.366999999999999943e-03
1.286999999999999950e-03
1.242000000000000048e-03
1.301000000000000073e-03
1.381000000000000066e-03
1.381000000000000066e-03
1.301999999999999989e-03
1.258000000000000004e-03
1.311000000000000099e-03
1.386000000000000079e-03
1.379999999999999933e-03
1.299999999999999940e-03
1.255999999999999955e-03
1.317999999999999944e-03
1.396000000000000105e-03
1.389999999999999960e-03
1.317999999999999944e-03
1.281000000000000021e-03
1.332000000000000068e-03
1.407000000000000048e-03
1.397999999999999937e-03
1.315999999999999896e-03
1.268999999999999946e-03
1.324000000000000090e-03
1.396000000000000105e-03
1.389000000000000044e-03
1.307999999999999918e-03
1.257000000000000088e-03
1.312999999999999931e-03
1.394999999999999973e-03
1.384000000000000031e-03
1.301999999999999989e-03
1.253999999999999906e-03
1.306000000000000086e-03
1.382999999999999898e-03
1.376999999999999969e-03
1.296999999999999976e-03
1.250999999999999942e-03
1.306000000000000086e-03
1.374999999999999920e-03
1.364999999999999894e-03
1.284999999999999901e-03
1.237999999999999951e-03
1.294000000000000011e-03
1.368000000000000075e-03
1.361000000000000014e-03
1.278999999999999972e-03
1.229999999999999974e-03
1.284999999999999901e-03
1.363000000000000062e-03
1.361999999999999929e-03
1.281999999999999936e-03
1.232000000000000022e-03
1.280000000000000105e-03
1.353999999999999952e-03
1.348999999999999939e-03
1.273999999999999959e-03
1.227000000000000009e-03
1.283999999999999985e-03
1.360000000000000098e-03
1.350999999999999987e-03
1.273000000000000043e-03
1.232999999999999938e-03
1.297999999999999892e-03
1.366999999999999943e-03
1.355000000000000085e-03
1.276999999999999923e-03
1.231000000000000106e-03
1.286999999999999950e-03
1.364999999999999894e-03
1.356999999999999916e-03
1.276999999999999923e-03
1.227999999999999925e-03
1.283999999999999985e-03
1.358999999999999965e-03
1.356999999999999916e-03
1.281000000000000021e-03
1.239000000000000084e-03
1.304999999999999953e-03
1.396000000000000105e-03
1.400999999999999902e-03
1.332000000000000068e-03
1.288999999999999998e-03
1.333999999999999899e-03
1.397999999999999937e-03
1.382999999999999898e-03
1.307999999999999918e-03
1.263999999999999933e-03
1.319000000000000077e-03
1.394000000000000057e-03
1.389999999999999960e-03
1.319000000000000077e-03
1.265999999999999981e-03
1.312999999999999931e-03
1.384000000000000031e-03
1.368000000000000075e-03
1.281000000000000021e-03
1.231000000000000106e-03
1.288000000000000082e-03
1.363999999999999978e-03
1.364999999999999894e-03
1.293000000000000095e-03
1.234999999999999987e-03
1.286999999999999950e-03
1.363000000000000062e-03
1.353999999999999952e-03
1.276000000000000007e-03
1.227999999999999925e-03
1.284999999999999901e-03
1.358999999999999965e-03
1.356999999999999916e-03
1.278999999999999972e-03
1.231000000000000106e-03
1.286000000000000034e-03
1.363999999999999978e-03
1.363000000000000062e-03
1.293000000000000095e-03
1.263000000000000017e-03
1.361000000000000014e-03
1.456999999999999962e-03
1.423999999999999919e-03
1.293000000000000095e-03
1.167999999999999984e-03
1.188999999999999953e-03
1.270000000000000078e-03
1.337000000000000081e-03
1.257000000000000088e-03
1.191999999999999917e-03
1.471000000000000085e-03
1.677000000000000105e-03
1.598000000000000028e-03
1.502000000000000080e-03
1.417000000000000074e-03
1.345999999999999974e-03
1.353000000000000036e-03
1.348000000000000023e-03
1.293000000000000095e-03
1.268000000000000030e-03
1.330000000000000019e-03
1.404999999999999999e-03
1.402000000000000034e-03
1.319999999999999993e-03
1.270999999999999994e-03
1.322999999999999957e-03
1.402000000000000034e-03
1.399000000000000070e-03
1.319000000000000077e-03
1.262000000000000101e-03
1.319999999999999993e-03
1.397999999999999937e-03
1.387999999999999911e-03
1.307000000000000002e-03
1.257000000000000088e-03
1.309999999999999967e-03
1.386000000000000079e-03
1.382999999999999898e-03
1.297999999999999892e-03
1.247999999999999977e-03
1.301999999999999989e-03
1.379000000000000017e-03
1.376999999999999969e-03
1.296999999999999976e-03
1.247000000000000062e-03
1.301000000000000073e-03
1.382999999999999898e-03
1.374000000000000004e-03
1.291000000000000047e-03
1.240000000000000000e-03
1.294999999999999927e-03
1.371000000000000040e-03
1.366000000000000027e-03
1.286000000000000034e-03
1.234999999999999987e-03
1.288999999999999998e-03
1.366000000000000027e-03
1.353999999999999952e-03
1.270999999999999994e-03
1.217999999999999899e-03
1.265000000000000065e-03
1.340999999999999961e-03
1.337999999999999997e-03
1.255000000000000039e-03
1.203000000000000076e-03
1.253999999999999906e-03
1.327000000000000055e-03
1.315999999999999896e-03
1.232000000000000022e-03
1.178999999999999927e-03
1.227999999999999925e-03
1.309999999999999967e-03
1.307000000000000002e-03
1.229000000000000058e-03
1.180999999999999975e-03
1.242000000000000048e-03
1.327999999999999970e-03
1.332000000000000068e-03
1.260000000000000052e-03
1.219999999999999947e-03
1.271999999999999910e-03
1.351999999999999903e-03
1.350999999999999987e-03
1.276999999999999923e-03
1.224000000000000045e-03
1.275000000000000092e-03
1.353000000000000036e-03
1.350000000000000071e-03
1.270999999999999994e-03
1.219000000000000031e-03
1.270000000000000078e-03
1.348000000000000023e-03
1.345000000000000058e-03
1.266999999999999897e-03
1.213000000000000102e-03
1.268000000000000030e-03
1.347000000000000107e-03
1.345999999999999974e-03
1.265999999999999981e-03
1.216999999999999983e-03
1.270000000000000078e-03
1.345999999999999974e-03
1.348000000000000023e-03
1.270000000000000078e-03
1.217999999999999899e-03
1.270000000000000078e-03
1.350999999999999987e-03
1.351999999999999903e-03
1.273000000000000043e-03
1.221000000000000080e-03
1.278000000000000056e-03
1.356999999999999916e-03
1.355000000000000085e-03
1.276000000000000007e-03
1.226000000000000093e-03
1.281999999999999936e-03
1.361999999999999929e-03
1.363000000000000062e-03
1.281000000000000021e-03
1.229000000000000058e-03
1.283999999999999985e-03
1.364999999999999894e-03
1.358000000000000049e-03
1.276000000000000007e-03
1.229000000000000058e-03
1.283000000000000069e-03
1.360000000000000098e-03
1.356000000000000000e-03
1.278000000000000056e-03
1.226000000000000093e-03
1.283000000000000069e-03
1.361000000000000014e-03
1.360000000000000098e-03
1.281000000000000021e-03
1.232999999999999938e-03
1.286000000000000034e-03
1.360000000000000098e-03
1.355000000000000085e-03
1.278000000000000056e-03
1.227000000000000009e-03
1.286000000000000034e-03
1.358999999999999965e-03
1.351999999999999903e-03
1.278000000000000056e-03
1.227999999999999925e-03
1.281000000000000021e-03
1.358000000000000049e-03
1.358999999999999965e-03
1.278000000000000056e-03
1.226000000000000093e-03
1.276999999999999923e-03
1.355000000000000085e-03
1.350999999999999987e-03
1.270999999999999994e-03
1.224000000000000045e-03
1.273999999999999959e-03
1.353000000000000036e-03
1.355000000000000085e-03
1.273999999999999959e-03
1.224999999999999960e-03
1.278000000000000056e-03
1.358999999999999965e-03
1.356999999999999916e-03
1.280000000000000105e-03
1.229000000000000058e-03
1.278999999999999972e-03
1.356999999999999916e-03
1.356000000000000000e-03
1.276999999999999923e-03
1.232999999999999938e-03
1.291999999999999963e-03
1.374999999999999920e-03
1.381999999999999982e-03
1.309999999999999967e-03
1.265000000000000065e-03
1.309999999999999967e-03
1.369999999999999907e-03
1.356000000000000000e-03
1.280000000000000105e-03
1.227999999999999925e-03
1.281999999999999936e-03
1.368999999999999991e-03
1.368000000000000075e-03
1.291000000000000047e-03
1.237999999999999951e-03
1.284999999999999901e-03
1.356000000000000000e-03
1.342000000000000094e-03
1.255000000000000039e-03
1.204999999999999908e-03
1.258000000000000004e-03
1.340999999999999961e-03
1.338999999999999913e-03
1.263000000000000017e-03
1.216999999999999983e-03
1.265999999999999981e-03
1.338999999999999913e-03
1.337999999999999997e-03
1.258999999999999920e-03
1.203999999999999992e-03
1.252000000000000075e-03
1.327000000000000055e-03
1.329000000000000103e-03
1.258000000000000004e-03
1.208000000000000089e-03
1.263000000000000017e-03
1.342000000000000094e-03
1.337000000000000081e-03
1.263000000000000017e-03
1.232999999999999938e-03
1.329000000000000103e-03
1.417999999999999990e-03
1.386000000000000079e-03
1.252000000000000075e-03
1.124999999999999915e-03
1.139000000000000038e-03
1.219000000000000031e-03
1.278000000000000056e-03
1.175000000000000046e-03
1.119999999999999902e-03
1.410999999999999928e-03
1.611000000000000019e-03
1.539000000000000003e-03
1.459999999999999926e-03
1.374999999999999920e-03
1.294999999999999927e-03
1.296999999999999976e-03
1.294999999999999927e-03
1.244000000000000097e-03
1.219999999999999947e-03
1.276000000000000007e-03
1.351999999999999903e-03
1.348999999999999939e-03
1.276000000000000007e-03
1.234999999999999987e-03
1.288000000000000082e-03
1.363999999999999978e-03
1.360000000000000098e-03
1.275000000000000092e-03
1.227000000000000009e-03
1.276999999999999923e-03
1.353999999999999952e-03
1.351999999999999903e-03
1.276999999999999923e-03
1.221999999999999996e-03
1.268999999999999946e-03
1.343000000000000010e-03
1.340000000000000045e-03
1.266999999999999897e-03
1.217999999999999899e-03
1.268000000000000030e-03
1.340000000000000045e-03
1.333999999999999899e-03
1.255000000000000039e-03
1.208000000000000089e-03
1.255999999999999955e-03
1.335000000000000032e-03
1.337000000000000081e-03
1.257000000000000088e-03
1.204999999999999908e-03
1.252999999999999991e-03
1.332999999999999984e-03
1.330000000000000019e-03
1.247999999999999977e-03
1.193999999999999966e-03
1.237999999999999951e-03
1.317000000000000028e-03
1.315999999999999896e-03
1.232999999999999938e-03
1.178000000000000011e-03
1.221999999999999996e-03
1.296000000000000060e-03
1.294000000000000011e-03
1.214999999999999934e-03
1.165000000000000020e-03
1.209999999999999921e-03
1.280000000000000105e-03
1.270000000000000078e-03
1.185999999999999988e-03
1.131999999999999977e-03
1.180999999999999975e-03
1.263000000000000017e-03
1.266999999999999897e-03
1.191000000000000001e-03
1.141000000000000087e-03
1.198999999999999979e-03
1.283000000000000069e-03
1.291999999999999963e-03
1.222999999999999912e-03
1.175000000000000046e-03
1.227000000000000009e-03
1.304999999999999953e-03
1.307000000000000002e-03
1.229999999999999974e-03
1.177000000000000095e-03
1.224000000000000045e-03
1.302999999999999905e-03
1.304000000000000038e-03
1.227000000000000009e-03
1.172999999999999998e-03
1.219000000000000031e-03
1.294000000000000011e-03
1.296999999999999976e-03
1.221999999999999996e-03
1.170000000000000033e-03
1.217999999999999899e-03
1.296000000000000060e-03
1.296999999999999976e-03
1.219999999999999947e-03
1.168999999999999900e-03
1.222999999999999912e-03
1.304999999999999953e-03
1.311000000000000099e-03
1.234000000000000071e-03
1.180000000000000059e-03
1.224000000000000045e-03
1.297999999999999892e-03
1.306000000000000086e-03
1.232000000000000022e-03
1.178000000000000011e-03
1.224999999999999960e-03
1.301999999999999989e-03
1.307000000000000002e-03
1.234999999999999987e-03
1.180999999999999975e-03
1.234999999999999987e-03
1.327999999999999970e-03
1.327000000000000055e-03
1.239000000000000084e-03
1.180999999999999975e-03
1.226000000000000093e-03
1.299000000000000024e-03
1.301999999999999989e-03
1.232000000000000022e-03
1.177000000000000095e-03
1.221000000000000080e-03
1.294000000000000011e-03
1.296000000000000060e-03
1.219000000000000031e-03
1.167000000000000069e-03
1.216999999999999983e-03
1.304000000000000038e-03
1.311000000000000099e-03
1.232000000000000022e-03
1.170999999999999949e-03
1.219000000000000031e-03
1.294999999999999927e-03
1.302999999999999905e-03
1.224999999999999960e-03
1.172999999999999998e-03
1.224999999999999960e-03
1.304999999999999953e-03
1.302999999999999905e-03
1.227000000000000009e-03
1.172000000000000082e-03
1.214999999999999934e-03
1.291000000000000047e-03
1.293000000000000095e-03
1.219000000000000031e-03
1.167000000000000069e-03
1.216000000000000067e-03
1.293000000000000095e-03
1.296999999999999976e-03
1.221000000000000080e-03
1.172000000000000082e-03
1.221000000000000080e-03
1.294999999999999927e-03
1.297999999999999892e-03
1.224999999999999960e-03
1.172999999999999998e-03
1.216000000000000067e-03
1.288999999999999998e-03
1.294000000000000011e-03
1.224999999999999960e-03
1.178000000000000011e-03
1.242000000000000048e-03
1.327000000000000055e-03
1.330000000000000019e-03
1.258000000000000004e-03
1.203000000000000076e-03
1.240000000000000000e-03
1.311000000000000099e-03
1.317999999999999944e-03
1.239000000000000084e-03
1.185999999999999988e-03
1.240000000000000000e-03
1.320999999999999909e-03
1.317999999999999944e-03
1.237000000000000035e-03
1.175000000000000046e-03
1.206999999999999957e-03
1.276999999999999923e-03
1.286999999999999950e-03
1.222999999999999912e-03
1.180000000000000059e-03
1.224999999999999960e-03
1.301000000000000073e-03
1.299999999999999940e-03
1.221000000000000080e-03
1.160999999999999923e-03
1.203999999999999992e-03
1.286000000000000034e-03
1.286999999999999950e-03
1.216000000000000067e-03
1.167999999999999984e-03
1.213000000000000102e-03
1.291999999999999963e-03
1.293000000000000095e-03
1.217999999999999899e-03
1.164000000000000104e-03
1.211000000000000054e-03
1.291999999999999963e-03
1.309999999999999967e-03
1.273999999999999959e-03
1.235999999999999903e-03
1.252999999999999991e-03
1.280000000000000105e-03
1.214999999999999934e-03
1.103000000000000031e-03
1.043000000000000090e-03
1.149000000000000065e-03
1.211999999999999970e-03
1.172000000000000082e-03
1.296000000000000060e-03
1.423999999999999919e-03
1.461000000000000059e-03
1.544999999999999932e-03
1.557999999999999923e-03
1.322999999999999957e-03
1.129000000000000012e-03
1.139000000000000038e-03
1.240000000000000000e-03
1.276999999999999923e-03
1.227000000000000009e-03
1.180999999999999975e-03
1.232000000000000022e-03
1.312999999999999931e-03
1.314999999999999980e-03
1.242000000000000048e-03
1.188000000000000037e-03
1.232000000000000022e-03
1.314000000000000064e-03
1.317999999999999944e-03
1.237999999999999951e-03
1.183000000000000024e-03
1.229999999999999974e-03
1.315999999999999896e-03
1.322000000000000041e-03
1.240000000000000000e-03
1.178000000000000011e-03
1.221999999999999996e-03
1.299999999999999940e-03
1.304999999999999953e-03
1.232999999999999938e-03
1.178000000000000011e-03
1.219000000000000031e-03
1.294000000000000011e-03
1.299000000000000024e-03
1.224000000000000045e-03
1.172999999999999998e-03
1.221000000000000080e-03
1.301000000000000073e-03
1.301999999999999989e-03
1.226000000000000093e-03
1.165000000000000020e-03
1.204999999999999908e-03
1.283000000000000069e-03
1.284999999999999901e-03
1.211999999999999970e-03
1.154999999999999994e-03
1.193999999999999966e-03
1.271999999999999910e-03
1.284999999999999901e-03
1.214000000000000018e-03
1.147999999999999932e-03
1.185999999999999988e-03
1.260999999999999968e-03
1.258999999999999920e-03
1.178999999999999927e-03
1.124999999999999915e-03
1.165999999999999936e-03
1.240000000000000000e-03
1.240999999999999916e-03
1.165000000000000020e-03
1.111000000000000008e-03
1.162000000000000055e-03
1.244000000000000097e-03
1.253999999999999906e-03
1.183999999999999940e-03
1.134999999999999941e-03
1.183999999999999940e-03
1.266999999999999897e-03
1.278000000000000056e-03
1.208000000000000089e-03
1.165000000000000020e-03
1.211000000000000054e-03
1.294999999999999927e-03
1.299000000000000024e-03
1.217999999999999899e-03
1.157000000000000042e-03
1.196999999999999930e-03
1.276000000000000007e-03
1.278999999999999972e-03
1.203999999999999992e-03
1.149000000000000065e-03
1.198000000000000063e-03
1.273999999999999959e-03
1.276999999999999923e-03
1.203000000000000076e-03
1.147999999999999932e-03
1.195000000000000099e-03
1.284999999999999901e-03
1.286999999999999950e-03
1.211000000000000054e-03
1.154999999999999994e-03
1.201000000000000028e-03
1.276999999999999923e-03
1.288000000000000082e-03
1.216000000000000067e-03
1.157999999999999958e-03
1.203999999999999992e-03
1.283000000000000069e-03
1.288999999999999998e-03
1.214999999999999934e-03
1.162999999999999971e-03
1.203999999999999992e-03
1.280000000000000105e-03
1.286999999999999950e-03
1.221000000000000080e-03
1.160999999999999923e-03
1.204999999999999908e-03
1.286000000000000034e-03
1.289999999999999914e-03
1.214000000000000018e-03
1.157000000000000042e-03
1.196999999999999930e-03
1.276999999999999923e-03
1.286000000000000034e-03
1.216999999999999983e-03
1.157000000000000042e-03
1.196999999999999930e-03
1.278000000000000056e-03
1.288000000000000082e-03
1.214000000000000018e-03
1.155999999999999910e-03
1.198999999999999979e-03
1.278999999999999972e-03
1.286000000000000034e-03
1.211999999999999970e-03
1.150999999999999896e-03
1.191000000000000001e-03
1.266999999999999897e-03
1.271999999999999910e-03
1.196999999999999930e-03
1.136000000000000074e-03
1.175000000000000046e-03
1.255999999999999955e-03
1.271999999999999910e-03
1.199999999999999895e-03
1.132999999999999893e-03
1.172999999999999998e-03
1.255999999999999955e-03
1.262000000000000101e-03
1.188999999999999953e-03
1.134999999999999941e-03
1.185999999999999988e-03
1.270999999999999994e-03
1.291000000000000047e-03
1.224000000000000045e-03
1.162999999999999971e-03
1.211999999999999970e-03
1.294000000000000011e-03
1.307999999999999918e-03
1.242000000000000048e-03
1.188000000000000037e-03
1.234000000000000071e-03
1.307999999999999918e-03
1.307999999999999918e-03
1.224999999999999960e-03
1.154999999999999994e-03
1.178000000000000011e-03
1.252999999999999991e-03
1.268999999999999946e-03
1.193000000000000050e-03
1.136000000000000074e-03
1.178999999999999927e-03
1.252000000000000075e-03
1.257000000000000088e-03
1.188000000000000037e-03
1.134999999999999941e-03
1.172999999999999998e-03
1.250000000000000026e-03
1.258999999999999920e-03
1.185000000000000072e-03
1.123000000000000083e-03
1.165000000000000020e-03
1.248999999999999893e-03
1.258999999999999920e-03
1.186999999999999904e-03
1.131000000000000061e-03
1.173999999999999913e-03
1.265000000000000065e-03
1.288999999999999998e-03
1.255999999999999955e-03
1.219000000000000031e-03
1.239000000000000084e-03
1.273000000000000043e-03
1.211000000000000054e-03
1.093000000000000005e-03
1.030000000000000100e-03
1.124999999999999915e-03
1.229999999999999974e-03
1.196000000000000014e-03
1.314000000000000064e-03
1.459999999999999926e-03
1.477000000000000014e-03
1.523999999999999964e-03
1.534999999999999906e-03
1.315999999999999896e-03
1.123000000000000083e-03
1.132999999999999893e-03
1.239000000000000084e-03
1.286999999999999950e-03
1.237000000000000035e-03
1.182000000000000108e-03
1.221000000000000080e-03
1.302999999999999905e-03
1.322000000000000041e-03
1.250999999999999942e-03
1.191999999999999917e-03
1.227999999999999925e-03
1.312000000000000015e-03
1.325999999999999922e-03
1.247999999999999977e-03
1.190000000000000085e-03
1.231000000000000106e-03
1.309999999999999967e-03
1.319000000000000077e-03
1.247999999999999977e-03
1.185999999999999988e-03
1.219000000000000031e-03
1.299999999999999940e-03
1.311000000000000099e-03
1.235999999999999903e-03
1.170000000000000033e-03
1.203000000000000076e-03
1.276999999999999923e-03
1.288999999999999998e-03
1.214000000000000018e-03
1.154000000000000078e-03
1.195000000000000099e-03
1.273999999999999959e-03
1.281000000000000021e-03
1.206000000000000041e-03
1.147000000000000016e-03
1.182000000000000108e-03
1.265999999999999981e-03
1.278999999999999972e-03
1.203000000000000076e-03
1.139999999999999954e-03
1.175999999999999962e-03
1.260000000000000052e-03
1.270999999999999994e-03
1.191000000000000001e-03
1.124999999999999915e-03
1.157000000000000042e-03
1.232999999999999938e-03
1.247000000000000062e-03
1.178000000000000011e-03
1.115000000000000106e-03
1.150999999999999896e-03
1.231000000000000106e-03
1.240000000000000000e-03
1.162000000000000055e-03
1.100999999999999982e-03
1.139000000000000038e-03
1.224000000000000045e-03
1.247000000000000062e-03
1.183999999999999940e-03
1.129000000000000012e-03
1.172999999999999998e-03
1.260000000000000052e-03
1.276000000000000007e-03
1.201000000000000028e-03
1.139000000000000038e-03
1.177000000000000095e-03
1.257000000000000088e-03
1.270999999999999994e-03
1.196999999999999930e-03
1.136000000000000074e-03
1.172999999999999998e-03
1.255000000000000039e-03
1.265999999999999981e-03
1.191999999999999917e-03
1.131999999999999977e-03
1.170999999999999949e-03
1.247999999999999977e-03
1.263000000000000017e-03
1.201000000000000028e-03
1.137999999999999906e-03
1.173999999999999913e-03
1.258999999999999920e-03
1.275000000000000092e-03
1.201999999999999943e-03
1.139999999999999954e-03
1.173999999999999913e-03
1.255999999999999955e-03
1.268000000000000030e-03
1.198999999999999979e-03
1.137999999999999906e-03
1.175000000000000046e-03
1.255000000000000039e-03
1.268999999999999946e-03
1.203999999999999992e-03
1.147000000000000016e-03
1.183000000000000024e-03
1.260000000000000052e-03
1.276000000000000007e-03
1.203000000000000076e-03
1.144999999999999967e-03
1.188999999999999953e-03
1.263000000000000017e-03
1.275000000000000092e-03
1.201999999999999943e-03
1.137999999999999906e-03
1.175000000000000046e-03
1.260999999999999968e-03
1.275000000000000092e-03
1.203999999999999992e-03
1.137999999999999906e-03
1.170000000000000033e-03
1.250000000000000026e-03
1.271999999999999910e-03
1.203000000000000076e-03
1.139999999999999954e-03
1.178000000000000011e-03
1.258999999999999920e-03
1.273999999999999959e-03
1.201999999999999943e-03
1.139000000000000038e-03
1.173999999999999913e-03
1.253999999999999906e-03
1.271999999999999910e-03
1.198000000000000063e-03
1.134999999999999941e-03
1.170000000000000033e-03
1.248999999999999893e-03
1.265000000000000065e-03
1.206000000000000041e-03
1.144000000000000052e-03
1.172999999999999998e-03
1.252999999999999991e-03
1.268999999999999946e-03
1.195000000000000099e-03
1.132999999999999893e-03
1.167000000000000069e-03
1.247999999999999977e-03
1.268999999999999946e-03
1.203999999999999992e-03
1.142000000000000003e-03
1.175999999999999962e-03
1.255000000000000039e-03
1.270999999999999994e-03
1.198999999999999979e-03
1.142999999999999919e-03
1.182000000000000108e-03
1.270999999999999994e-03
1.297999999999999892e-03
1.237999999999999951e-03
1.178999999999999927e-03
1.217999999999999899e-03
1.296999999999999976e-03
1.299000000000000024e-03
1.227999999999999925e-03
1.167000000000000069e-03
1.198999999999999979e-03
1.280000000000000105e-03
1.301999999999999989e-03
1.235999999999999903e-03
1.170000000000000033e-03
1.201999999999999943e-03
1.278000000000000056e-03
1.280000000000000105e-03
1.201000000000000028e-03
1.139000000000000038e-03
1.173999999999999913e-03
1.258999999999999920e-03
1.278999999999999972e-03
1.214000000000000018e-03
1.152999999999999945e-03
1.183000000000000024e-03
1.260999999999999968e-03
1.281999999999999936e-03
1.211999999999999970e-03
1.152000000000000029e-03
1.183999999999999940e-03
1.262000000000000101e-03
1.275000000000000092e-03
1.206999999999999957e-03
1.144000000000000052e-03
1.182000000000000108e-03
1.271999999999999910e-03
1.286999999999999950e-03
1.219000000000000031e-03
1.157999999999999958e-03
1.226000000000000093e-03
1.348000000000000023e-03
1.358000000000000049e-03
1.247999999999999977e-03
1.119999999999999902e-03
1.093000000000000005e-03
1.160000000000000007e-03
1.224999999999999960e-03
1.221999999999999996e-03
1.116999999999999937e-03
1.268000000000000030e-03
1.579000000000000108e-03
1.590999999999999966e-03
1.459000000000000010e-03
1.392999999999999924e-03
1.325999999999999922e-03
1.283000000000000069e-03
1.265000000000000065e-03
1.214000000000000018e-03
1.178999999999999927e-03
1.229999999999999974e-03
1.312000000000000015e-03
1.329000000000000103e-03
1.258000000000000004e-03
1.193999999999999966e-03
1.227999999999999925e-03
1.312999999999999931e-03
1.333999999999999899e-03
1.263000000000000017e-03
1.196000000000000014e-03
1.227000000000000009e-03
1.307999999999999918e-03
1.333999999999999899e-03
1.263999999999999933e-03
1.196999999999999930e-03
1.229999999999999974e-03
1.309999999999999967e-03
1.327000000000000055e-03
1.258999999999999920e-03
1.193000000000000050e-03
1.224000000000000045e-03
1.307999999999999918e-03
1.322999999999999957e-03
1.252999999999999991e-03
1.191000000000000001e-03
1.226000000000000093e-03
1.309000000000000051e-03
1.322000000000000041e-03
1.252999999999999991e-03
1.188999999999999953e-03
1.221000000000000080e-03
1.301000000000000073e-03
1.322999999999999957e-03
1.258999999999999920e-03
1.191999999999999917e-03
1.221999999999999996e-03
1.304000000000000038e-03
1.319999999999999993e-03
1.245999999999999929e-03
1.173999999999999913e-03
1.199999999999999895e-03
1.280000000000000105e-03
1.299000000000000024e-03
1.227999999999999925e-03
1.159000000000000091e-03
1.188000000000000037e-03
1.263999999999999933e-03
1.278999999999999972e-03
1.206999999999999957e-03
1.142000000000000003e-03
1.170999999999999949e-03
1.250000000000000026e-03
1.273999999999999959e-03
1.211000000000000054e-03
1.147999999999999932e-03
1.183999999999999940e-03
1.270000000000000078e-03
1.296000000000000060e-03
1.234999999999999987e-03
1.172999999999999998e-03
1.211000000000000054e-03
1.296999999999999976e-03
1.317000000000000028e-03
1.252000000000000075e-03
1.185000000000000072e-03
1.211999999999999970e-03
1.291999999999999963e-03
1.312000000000000015e-03
1.240999999999999916e-03
1.177000000000000095e-03
1.206000000000000041e-03
1.288000000000000082e-03
1.314000000000000064e-03
1.244000000000000097e-03
1.175999999999999962e-03
1.204999999999999908e-03
1.299000000000000024e-03
1.317999999999999944e-03
1.247000000000000062e-03
1.180000000000000059e-03
1.211000000000000054e-03
1.294000000000000011e-03
1.317000000000000028e-03
1.253999999999999906e-03
1.190000000000000085e-03
1.222999999999999912e-03
1.304999999999999953e-03
1.324000000000000090e-03
1.252999999999999991e-03
1.188000000000000037e-03
1.221000000000000080e-03
1.301000000000000073e-03
1.322999999999999957e-03
1.260999999999999968e-03
1.196999999999999930e-03
1.226000000000000093e-03
1.304000000000000038e-03
1.330000000000000019e-03
1.262000000000000101e-03
1.191999999999999917e-03
1.221000000000000080e-03
1.306000000000000086e-03
1.327000000000000055e-03
1.260000000000000052e-03
1.193000000000000050e-03
1.219999999999999947e-03
1.301999999999999989e-03
1.322999999999999957e-03
1.257000000000000088e-03
1.191000000000000001e-03
1.219000000000000031e-03
1.294999999999999927e-03
1.317999999999999944e-03
1.250999999999999942e-03
1.183999999999999940e-03
1.216000000000000067e-03
1.299999999999999940e-03
1.319000000000000077e-03
1.252000000000000075e-03
1.186999999999999904e-03
1.216999999999999983e-03
1.296999999999999976e-03
1.319000000000000077e-03
1.252999999999999991e-03
1.185999999999999988e-03
1.211999999999999970e-03
1.293000000000000095e-03
1.319999999999999993e-03
1.248999999999999893e-03
1.180000000000000059e-03
1.209999999999999921e-03
1.294999999999999927e-03
1.319000000000000077e-03
1.250999999999999942e-03
1.182000000000000108e-03
1.209999999999999921e-03
1.294999999999999927e-03
1.319999999999999993e-03
1.247000000000000062e-03
1.183999999999999940e-03
1.211999999999999970e-03
1.291999999999999963e-03
1.314999999999999980e-03
1.252000000000000075e-03
1.182000000000000108e-03
1.209999999999999921e-03
1.296000000000000060e-03
1.319999999999999993e-03
1.252000000000000075e-03
1.185999999999999988e-03
1.219000000000000031e-03
1.307999999999999918e-03
1.335999999999999948e-03
1.273999999999999959e-03
1.219000000000000031e-03
1.247999999999999977e-03
1.319000000000000077e-03
1.327999999999999970e-03
1.253999999999999906e-03
1.186999999999999904e-03
1.217999999999999899e-03
1.306000000000000086e-03
1.335000000000000032e-03
1.275000000000000092e-03
1.199999999999999895e-03
1.224000000000000045e-03
1.304999999999999953e-03
1.317999999999999944e-03
1.237999999999999951e-03
1.172999999999999998e-03
1.201000000000000028e-03
1.284999999999999901e-03
1.314000000000000064e-03
1.250999999999999942e-03
1.188999999999999953e-03
1.221000000000000080e-03
1.296999999999999976e-03
1.319000000000000077e-03
1.250999999999999942e-03
1.183000000000000024e-03
1.209999999999999921e-03
1.294000000000000011e-03
1.317000000000000028e-03
1.247999999999999977e-03
1.180999999999999975e-03
1.214000000000000018e-03
1.293000000000000095e-03
1.317999999999999944e-03
1.255000000000000039e-03
1.199999999999999895e-03
1.268999999999999946e-03
1.381000000000000066e-03
1.392999999999999924e-03
1.288999999999999998e-03
1.144999999999999967e-03
1.116999999999999937e-03
1.186999999999999904e-03
1.258000000000000004e-03
1.222999999999999912e-03
1.113999999999999973e-03
1.314000000000000064e-03
1.596999999999999895e-03
1.587000000000000086e-03
1.484000000000000076e-03
1.407999999999999963e-03
1.309999999999999967e-03
1.286000000000000034e-03
1.293000000000000095e-03
1.252000000000000075e-03
1.211000000000000054e-03
1.247000000000000062e-03
1.332000000000000068e-03
1.358000000000000049e-03
1.291999999999999963e-03
1.221000000000000080e-03
1.248999999999999893e-03
1.337000000000000081e-03
1.364999999999999894e-03
1.294000000000000011e-03
1.227999999999999925e-03
1.252999999999999991e-03
1.332000000000000068e-03
1.355000000000000085e-03
1.294000000000000011e-03
1.224999999999999960e-03
1.245999999999999929e-03
1.324000000000000090e-03
1.347000000000000107e-03
1.278999999999999972e-03
1.209999999999999921e-03
1.234999999999999987e-03
1.317999999999999944e-03
1.343000000000000010e-03
1.280000000000000105e-03
1.214999999999999934e-03
1.245999999999999929e-03
1.330000000000000019e-03
1.353000000000000036e-03
1.283999999999999985e-03
1.216999999999999983e-03
1.240999999999999916e-03
1.324000000000000090e-03
1.351999999999999903e-03
1.283000000000000069e-03
1.211000000000000054e-03
1.232000000000000022e-03
1.307999999999999918e-03
1.337999999999999997e-03
1.270999999999999994e-03
1.201000000000000028e-03
1.219999999999999947e-03
1.296999999999999976e-03
1.322000000000000041e-03
1.255000000000000039e-03
1.183000000000000024e-03
1.203999999999999992e-03
1.276999999999999923e-03
1.301999999999999989e-03
1.232999999999999938e-03
1.162999999999999971e-03
1.185999999999999988e-03
1.266999999999999897e-03
1.289999999999999914e-03
1.227000000000000009e-03
1.167000000000000069e-03
1.196000000000000014e-03
1.283999999999999985e-03
1.317000000000000028e-03
1.260999999999999968e-03
1.195000000000000099e-03
1.221000000000000080e-03
1.307000000000000002e-03
1.333999999999999899e-03
1.268999999999999946e-03
1.204999999999999908e-03
1.234000000000000071e-03
1.312999999999999931e-03
1.335999999999999948e-03
1.268000000000000030e-03
1.196000000000000014e-03
1.221999999999999996e-03
1.311000000000000099e-03
1.337999999999999997e-03
1.265999999999999981e-03
1.193000000000000050e-03
1.221999999999999996e-03
1.304999999999999953e-03
1.332999999999999984e-03
1.270000000000000078e-03
1.206000000000000041e-03
1.229999999999999974e-03
1.314000000000000064e-03
1.342000000000000094e-03
1.278000000000000056e-03
1.211000000000000054e-03
1.237000000000000035e-03
1.319000000000000077e-03
1.343999999999999926e-03
1.283999999999999985e-03
1.216999999999999983e-03
1.237999999999999951e-03
1.315999999999999896e-03
1.348000000000000023e-03
1.288000000000000082e-03
1.216999999999999983e-03
1.237000000000000035e-03
1.319999999999999993e-03
1.348000000000000023e-03
1.286999999999999950e-03
1.216000000000000067e-03
1.237999999999999951e-03
1.322999999999999957e-03
1.351999999999999903e-03
1.284999999999999901e-03
1.214000000000000018e-03
1.235999999999999903e-03
1.317999999999999944e-03
1.345000000000000058e-03
1.281000000000000021e-03
1.211999999999999970e-03
1.232999999999999938e-03
1.312000000000000015e-03
1.337000000000000081e-03
1.273000000000000043e-03
1.204999999999999908e-03
1.229000000000000058e-03
1.312999999999999931e-03
1.348000000000000023e-03
1.281000000000000021e-03
1.209000000000000005e-03
1.235999999999999903e-03
1.317999999999999944e-03
1.342000000000000094e-03
1.275000000000000092e-03
1.206000000000000041e-03
1.226000000000000093e-03
1.307000000000000002e-03
1.342000000000000094e-03
1.278999999999999972e-03
1.206999999999999957e-03
1.229000000000000058e-03
1.312999999999999931e-03
1.338999999999999913e-03
1.273999999999999959e-03
1.209999999999999921e-03
1.232999999999999938e-03
1.309000000000000051e-03
1.335999999999999948e-03
1.273000000000000043e-03
1.206999999999999957e-03
1.227999999999999925e-03
1.312999999999999931e-03
1.350000000000000071e-03
1.288000000000000082e-03
1.217999999999999899e-03
1.237999999999999951e-03
1.314999999999999980e-03
1.343999999999999926e-03
1.283999999999999985e-03
1.214999999999999934e-03
1.232999999999999938e-03
1.315999999999999896e-03
1.345999999999999974e-03
1.278000000000000056e-03
1.211000000000000054e-03
1.232000000000000022e-03
1.312999999999999931e-03
1.342000000000000094e-03
1.280000000000000105e-03
1.209999999999999921e-03
1.232999999999999938e-03
1.317000000000000028e-03
1.348999999999999939e-03
1.286000000000000034e-03
1.213000000000000102e-03
1.234000000000000071e-03
1.315999999999999896e-03
1.345000000000000058e-03
1.291000000000000047e-03
1.229000000000000058e-03
1.257000000000000088e-03
1.345000000000000058e-03
1.381999999999999982e-03
1.335000000000000032e-03
1.258000000000000004e-03
1.260999999999999968e-03
1.332999999999999984e-03
1.363000000000000062e-03
1.297999999999999892e-03
1.229999999999999974e-03
1.258999999999999920e-03
1.343999999999999926e-03
1.371000000000000040e-03
1.299999999999999940e-03
1.227000000000000009e-03
1.247999999999999977e-03
1.322000000000000041e-03
1.347000000000000107e-03
1.284999999999999901e-03
1.213000000000000102e-03
1.234999999999999987e-03
1.322999999999999957e-03
1.353000000000000036e-03
1.286999999999999950e-03
1.213000000000000102e-03
1.234999999999999987e-03
1.319999999999999993e-03
1.348999999999999939e-03
1.288000000000000082e-03
1.211999999999999970e-03
1.232000000000000022e-03
1.314000000000000064e-03
1.343999999999999926e-03
1.281000000000000021e-03
1.211999999999999970e-03
1.235999999999999903e-03
1.319999999999999993e-03
1.353999999999999952e-03
1.322000000000000041e-03
1.294999999999999927e-03
1.319000000000000077e-03
1.366999999999999943e-03
1.337000000000000081e-03
1.198000000000000063e-03
1.095999999999999969e-03
1.131000000000000061e-03
1.278000000000000056e-03
1.270999999999999994e-03
1.270000000000000078e-03
1.453000000000000081e-03
1.544999999999999932e-03
1.564999999999999985e-03
1.596999999999999895e-03
1.456000000000000046e-03
1.237999999999999951e-03
1.198000000000000063e-03
1.288999999999999998e-03
1.358000000000000049e-03
1.320999999999999909e-03
1.250999999999999942e-03
1.265000000000000065e-03
1.347000000000000107e-03
1.376999999999999969e-03
1.312999999999999931e-03
1.242999999999999964e-03
1.260999999999999968e-03
1.345000000000000058e-03
1.379000000000000017e-03
1.314999999999999980e-03
1.244000000000000097e-03
1.268000000000000030e-03
1.353000000000000036e-03
1.382999999999999898e-03
1.319000000000000077e-03
1.245000000000000013e-03
1.260999999999999968e-03
1.338999999999999913e-03
1.371999999999999956e-03
1.307999999999999918e-03
1.234999999999999987e-03
1.258000000000000004e-03
1.340999999999999961e-03
1.373000000000000088e-03
1.320999999999999909e-03
1.242999999999999964e-03
1.255999999999999955e-03
1.337000000000000081e-03
1.364999999999999894e-03
1.302999999999999905e-03
1.234000000000000071e-03
1.250999999999999942e-03
1.333999999999999899e-03
1.364999999999999894e-03
1.297999999999999892e-03
1.221999999999999996e-03
1.242000000000000048e-03
1.325999999999999922e-03
1.353999999999999952e-03
1.288000000000000082e-03
1.211000000000000054e-03
1.224999999999999960e-03
1.299999999999999940e-03
1.324000000000000090e-03
1.255000000000000039e-03
1.183000000000000024e-03
1.199999999999999895e-03
1.276000000000000007e-03
1.299999999999999940e-03
1.242000000000000048e-03
1.168999999999999900e-03
1.183999999999999940e-03
1.262000000000000101e-03
1.297999999999999892e-03
1.242000000000000048e-03
1.175999999999999962e-03
1.201999999999999943e-03
1.291000000000000047e-03
1.330000000000000019e-03
1.276000000000000007e-03
1.209999999999999921e-03
1.227999999999999925e-03
1.309999999999999967e-03
1.340999999999999961e-03
1.278999999999999972e-03
1.204999999999999908e-03
1.224000000000000045e-03
1.307999999999999918e-03
1.338999999999999913e-03
1.280000000000000105e-03
1.206999999999999957e-03
1.224000000000000045e-03
1.311000000000000099e-03
1.338999999999999913e-03
1.276999999999999923e-03
1.208000000000000089e-03
1.227000000000000009e-03
1.309000000000000051e-03
1.348000000000000023e-03
1.299000000000000024e-03
1.226000000000000093e-03
1.239000000000000084e-03
1.324000000000000090e-03
1.356999999999999916e-03
1.296999999999999976e-03
1.224999999999999960e-03
1.237999999999999951e-03
1.322000000000000041e-03
1.355000000000000085e-03
1.297999999999999892e-03
1.232999999999999938e-03
1.250999999999999942e-03
1.329000000000000103e-03
1.363999999999999978e-03
1.317000000000000028e-03
1.235999999999999903e-03
1.247000000000000062e-03
1.327999999999999970e-03
1.356999999999999916e-03
1.296000000000000060e-03
1.224999999999999960e-03
1.237999999999999951e-03
1.320999999999999909e-03
1.356999999999999916e-03
1.299999999999999940e-03
1.224000000000000045e-03
1.240000000000000000e-03
1.319999999999999993e-03
1.355000000000000085e-03
1.301000000000000073e-03
1.229000000000000058e-03
1.240000000000000000e-03
1.322000000000000041e-03
1.355000000000000085e-03
1.294999999999999927e-03
1.222999999999999912e-03
1.242000000000000048e-03
1.325999999999999922e-03
1.361000000000000014e-03
1.296999999999999976e-03
1.222999999999999912e-03
1.237999999999999951e-03
1.322000000000000041e-03
1.355000000000000085e-03
1.296999999999999976e-03
1.221999999999999996e-03
1.232999999999999938e-03
1.314000000000000064e-03
1.350000000000000071e-03
1.299000000000000024e-03
1.229999999999999974e-03
1.240999999999999916e-03
1.322999999999999957e-03
1.353999999999999952e-03
1.299999999999999940e-03
1.231000000000000106e-03
1.245000000000000013e-03
1.325999999999999922e-03
1.363000000000000062e-03
1.299999999999999940e-03
1.227000000000000009e-03
1.245000000000000013e-03
1.324000000000000090e-03
1.360000000000000098e-03
1.299000000000000024e-03
1.227999999999999925e-03
1.244000000000000097e-03
1.327000000000000055e-03
1.358000000000000049e-03
1.296999999999999976e-03
1.227000000000000009e-03
1.247999999999999977e-03
1.327999999999999970e-03
1.358000000000000049e-03
1.296000000000000060e-03
1.222999999999999912e-03
1.237999999999999951e-03
1.319999999999999993e-03
1.356999999999999916e-03
1.301000000000000073e-03
1.232999999999999938e-03
1.255000000000000039e-03
1.338999999999999913e-03
1.379000000000000017e-03
1.332999999999999984e-03
1.263999999999999933e-03
1.270000000000000078e-03
1.343999999999999926e-03
1.371999999999999956e-03
1.311000000000000099e-03
1.237999999999999951e-03
1.250999999999999942e-03
1.340000000000000045e-03
1.384999999999999946e-03
1.324000000000000090e-03
1.244000000000000097e-03
1.258000000000000004e-03
1.335000000000000032e-03
1.360000000000000098e-03
1.291999999999999963e-03
1.217999999999999899e-03
1.235999999999999903e-03
1.319000000000000077e-03
1.356999999999999916e-03
1.301000000000000073e-03
1.229999999999999974e-03
1.237999999999999951e-03
1.317999999999999944e-03
1.355000000000000085e-03
1.299000000000000024e-03
1.229000000000000058e-03
1.242000000000000048e-03
1.319999999999999993e-03
1.358000000000000049e-03
1.301999999999999989e-03
1.226000000000000093e-03
1.234999999999999987e-03
1.322000000000000041e-03
1.363000000000000062e-03
1.304999999999999953e-03
1.255999999999999955e-03
1.307999999999999918e-03
1.404999999999999999e-03
1.415999999999999941e-03
1.304000000000000038e-03
1.147999999999999932e-03
1.118999999999999986e-03
1.203000000000000076e-03
1.302999999999999905e-03
1.224999999999999960e-03
1.128000000000000096e-03
1.361000000000000014e-03
1.629999999999999939e-03
1.652999999999999955e-03
1.595000000000000064e-03
1.510000000000000057e-03
1.343000000000000010e-03
1.294000000000000011e-03
1.302999999999999905e-03
1.270999999999999994e-03
1.227000000000000009e-03
1.266999999999999897e-03
1.350000000000000071e-03
1.389000000000000044e-03
1.332999999999999984e-03
1.258999999999999920e-03
1.268999999999999946e-03
1.347000000000000107e-03
1.386000000000000079e-03
1.330999999999999935e-03
1.260000000000000052e-03
1.268000000000000030e-03
1.356000000000000000e-03
1.389000000000000044e-03
1.332000000000000068e-03
1.262000000000000101e-03
1.275000000000000092e-03
1.345000000000000058e-03
1.381999999999999982e-03
1.325999999999999922e-03
1.247000000000000062e-03
1.260000000000000052e-03
1.342000000000000094e-03
1.379999999999999933e-03
1.319000000000000077e-03
1.240000000000000000e-03
1.250999999999999942e-03
1.333999999999999899e-03
1.374000000000000004e-03
1.314999999999999980e-03
1.237999999999999951e-03
1.247999999999999977e-03
1.324000000000000090e-03
1.361999999999999929e-03
1.304999999999999953e-03
1.232000000000000022e-03
1.239000000000000084e-03
1.319000000000000077e-03
1.350999999999999987e-03
1.294000000000000011e-03
1.224999999999999960e-03
1.237000000000000035e-03
1.312000000000000015e-03
1.345000000000000058e-03
1.286999999999999950e-03
1.203000000000000076e-03
1.204999999999999908e-03
1.280000000000000105e-03
1.319000000000000077e-03
1.263000000000000017e-03
1.185000000000000072e-03
1.198999999999999979e-03
1.281000000000000021e-03
1.315999999999999896e-03
1.257000000000000088e-03
1.190000000000000085e-03
1.203999999999999992e-03
1.293000000000000095e-03
1.342000000000000094e-03
1.296000000000000060e-03
1.217999999999999899e-03
1.237000000000000035e-03
1.325000000000000006e-03
1.366999999999999943e-03
1.309999999999999967e-03
1.239000000000000084e-03
1.248999999999999893e-03
1.330999999999999935e-03
1.368999999999999991e-03
1.309000000000000051e-03
1.229999999999999974e-03
1.240999999999999916e-03
1.322000000000000041e-03
1.360000000000000098e-03
1.304000000000000038e-03
1.234999999999999987e-03
1.245000000000000013e-03
1.329000000000000103e-03
1.366999999999999943e-03
1.311000000000000099e-03
1.234000000000000071e-03
1.240999999999999916e-03
1.324000000000000090e-03
1.366999999999999943e-03
1.317999999999999944e-03
1.242000000000000048e-03
1.247000000000000062e-03
1.325000000000000006e-03
1.368000000000000075e-03
1.309000000000000051e-03
1.237000000000000035e-03
1.242999999999999964e-03
1.330000000000000019e-03
1.371999999999999956e-03
1.317999999999999944e-03
1.240000000000000000e-03
1.247999999999999977e-03
1.333999999999999899e-03
1.376999999999999969e-03
1.317000000000000028e-03
1.234000000000000071e-03
1.239000000000000084e-03
1.325000000000000006e-03
1.371000000000000040e-03
1.314000000000000064e-03
1.239000000000000084e-03
1.245000000000000013e-03
1.325000000000000006e-03
1.361000000000000014e-03
1.306000000000000086e-03
1.229999999999999974e-03
1.240000000000000000e-03
1.317999999999999944e-03
1.358000000000000049e-03
1.302999999999999905e-03
1.231000000000000106e-03
1.234000000000000071e-03
1.312000000000000015e-03
1.353000000000000036e-03
1.297999999999999892e-03
1.222999999999999912e-03
1.227999999999999925e-03
1.309999999999999967e-03
1.348999999999999939e-03
1.296000000000000060e-03
1.219000000000000031e-03
1.229000000000000058e-03
1.314999999999999980e-03
1.360000000000000098e-03
1.307000000000000002e-03
1.232000000000000022e-03
1.234999999999999987e-03
1.314000000000000064e-03
1.353999999999999952e-03
1.299000000000000024e-03
1.226000000000000093e-03
1.237000000000000035e-03
1.315999999999999896e-03
1.353000000000000036e-03
1.294999999999999927e-03
1.224000000000000045e-03
1.234000000000000071e-03
1.311000000000000099e-03
1.353999999999999952e-03
1.302999999999999905e-03
1.235999999999999903e-03
1.247999999999999977e-03
1.335999999999999948e-03
1.386999999999999995e-03
1.340000000000000045e-03
1.262000000000000101e-03
1.263000000000000017e-03
1.335000000000000032e-03
1.376000000000000053e-03
1.332000000000000068e-03
1.258999999999999920e-03
1.263000000000000017e-03
1.348999999999999939e-03
1.386000000000000079e-03
1.315999999999999896e-03
1.224000000000000045e-03
1.227999999999999925e-03
1.314000000000000064e-03
1.355000000000000085e-03
1.306000000000000086e-03
1.226000000000000093e-03
1.226000000000000093e-03
1.299000000000000024e-03
1.337000000000000081e-03
1.286000000000000034e-03
1.211000000000000054e-03
1.213000000000000102e-03
1.294000000000000011e-03
1.340999999999999961e-03
1.293000000000000095e-03
1.219999999999999947e-03
1.226000000000000093e-03
1.301999999999999989e-03
1.343000000000000010e-03
1.294999999999999927e-03
1.219000000000000031e-03
1.221999999999999996e-03
1.312000000000000015e-03
1.386999999999999995e-03
1.369999999999999907e-03
1.284999999999999901e-03
1.248999999999999893e-03
1.263999999999999933e-03
1.240999999999999916e-03
1.178999999999999927e-03
1.144000000000000052e-03
1.211999999999999970e-03
1.235999999999999903e-03
1.374999999999999920e-03
1.567999999999999949e-03
1.564000000000000069e-03
1.513999999999999938e-03
1.606000000000000006e-03
1.552999999999999910e-03
1.327999999999999970e-03
1.170999999999999949e-03
1.180000000000000059e-03
1.288999999999999998e-03
1.366999999999999943e-03
1.327000000000000055e-03
1.247999999999999977e-03
1.247999999999999977e-03
1.329000000000000103e-03
1.368000000000000075e-03
1.314999999999999980e-03
1.240999999999999916e-03
1.247999999999999977e-03
1.332999999999999984e-03
1.376999999999999969e-03
1.325000000000000006e-03
1.247999999999999977e-03
1.250000000000000026e-03
1.327000000000000055e-03
1.371000000000000040e-03
1.322999999999999957e-03
1.250999999999999942e-03
1.248999999999999893e-03
1.330000000000000019e-03
1.374999999999999920e-03
1.325999999999999922e-03
1.250000000000000026e-03
1.250999999999999942e-03
1.340000000000000045e-03
1.379999999999999933e-03
1.322999999999999957e-03
1.242999999999999964e-03
1.244000000000000097e-03
1.329000000000000103e-03
1.371999999999999956e-03
1.319000000000000077e-03
1.240000000000000000e-03
1.237999999999999951e-03
1.314999999999999980e-03
1.361000000000000014e-03
1.309999999999999967e-03
1.229000000000000058e-03
1.224000000000000045e-03
1.309999999999999967e-03
1.355000000000000085e-03
1.296000000000000060e-03
1.216000000000000067e-03
1.216000000000000067e-03
1.294000000000000011e-03
1.337999999999999997e-03
1.280000000000000105e-03
1.198000000000000063e-03
1.195000000000000099e-03
1.268999999999999946e-03
1.314000000000000064e-03
1.260000000000000052e-03
1.183999999999999940e-03
1.188000000000000037e-03
1.270999999999999994e-03
1.322999999999999957e-03
1.281999999999999936e-03
1.214000000000000018e-03
1.221999999999999996e-03
1.309000000000000051e-03
1.358999999999999965e-03
1.309000000000000051e-03
1.232999999999999938e-03
1.232999999999999938e-03
1.309000000000000051e-03
1.353999999999999952e-03
1.301999999999999989e-03
1.226000000000000093e-03
1.221999999999999996e-03
1.304999999999999953e-03
1.348000000000000023e-03
1.294000000000000011e-03
1.216000000000000067e-03
1.224999999999999960e-03
1.312999999999999931e-03
1.353000000000000036e-03
1.301000000000000073e-03
1.222999999999999912e-03
1.224999999999999960e-03
1.307000000000000002e-03
1.356000000000000000e-03
1.304000000000000038e-03
1.227999999999999925e-03
1.227999999999999925e-03
1.309999999999999967e-03
1.358000000000000049e-03
1.306000000000000086e-03
1.227000000000000009e-03
1.232000000000000022e-03
1.315999999999999896e-03
1.360000000000000098e-03
1.306000000000000086e-03
1.232999999999999938e-03
1.234000000000000071e-03
1.311000000000000099e-03
1.353000000000000036e-03
1.302999999999999905e-03
1.224999999999999960e-03
1.224999999999999960e-03
1.306000000000000086e-03
1.351999999999999903e-03
1.299999999999999940e-03
1.221999999999999996e-03
1.221999999999999996e-03
1.301000000000000073e-03
1.348000000000000023e-03
1.297999999999999892e-03
1.224000000000000045e-03
1.227999999999999925e-03
1.306000000000000086e-03
1.350999999999999987e-03
1.299999999999999940e-03
1.217999999999999899e-03
1.216999999999999983e-03
1.293000000000000095e-03
1.338999999999999913e-03
1.288999999999999998e-03
1.214999999999999934e-03
1.216000000000000067e-03
1.301999999999999989e-03
1.348999999999999939e-03
1.296000000000000060e-03
1.219000000000000031e-03
1.227999999999999925e-03
1.296000000000000060e-03
1.340999999999999961e-03
1.291999999999999963e-03
1.213000000000000102e-03
1.211999999999999970e-03
1.294000000000000011e-03
1.348999999999999939e-03
1.301000000000000073e-03
1.224999999999999960e-03
1.221999999999999996e-03
1.296000000000000060e-03
1.342000000000000094e-03
1.293000000000000095e-03
1.216000000000000067e-03
1.214000000000000018e-03
1.297999999999999892e-03
1.343999999999999926e-03
1.296999999999999976e-03
1.221000000000000080e-03
1.224000000000000045e-03
1.309999999999999967e-03
1.366999999999999943e-03
1.325999999999999922e-03
1.255000000000000039e-03
1.258000000000000004e-03
1.337000000000000081e-03
1.373000000000000088e-03
1.312999999999999931e-03
1.234999999999999987e-03
1.234999999999999987e-03
1.312999999999999931e-03
1.363999999999999978e-03
1.320999999999999909e-03
1.242999999999999964e-03
1.234999999999999987e-03
1.314999999999999980e-03
1.353999999999999952e-03
1.291999999999999963e-03
1.206999999999999957e-03
1.204999999999999908e-03
1.288999999999999998e-03
1.350000000000000071e-03
1.299999999999999940e-03
1.221999999999999996e-03
1.219000000000000031e-03
1.296000000000000060e-03
1.332999999999999984e-03
1.288000000000000082e-03
1.214999999999999934e-03
1.211999999999999970e-03
1.294000000000000011e-03
1.338999999999999913e-03
1.286999999999999950e-03
1.211999999999999970e-03
1.211000000000000054e-03
1.294000000000000011e-03
1.347000000000000107e-03
1.297999999999999892e-03
1.224000000000000045e-03
1.245999999999999929e-03
1.363000000000000062e-03
1.420999999999999954e-03
1.342000000000000094e-03
1.208000000000000089e-03
1.132999999999999893e-03
1.191000000000000001e-03
1.250999999999999942e-03
1.281999999999999936e-03
1.209999999999999921e-03
1.222999999999999912e-03
1.539000000000000003e-03
1.709000000000000016e-03
1.580999999999999940e-03
1.477000000000000014e-03
1.422000000000000087e-03
1.353000000000000036e-03
1.319000000000000077e-03
1.275000000000000092e-03
1.229999999999999974e-03
1.245000000000000013e-03
1.329000000000000103e-03
1.376999999999999969e-03
1.329000000000000103e-03
1.253999999999999906e-03
1.248999999999999893e-03
1.325000000000000006e-03
1.373000000000000088e-03
1.327999999999999970e-03
1.252999999999999991e-03
1.255999999999999955e-03
1.332999999999999984e-03
1.376999999999999969e-03
1.327999999999999970e-03
1.247999999999999977e-03
1.242999999999999964e-03
1.319999999999999993e-03
1.368999999999999991e-03
1.325999999999999922e-03
1.247000000000000062e-03
1.242999999999999964e-03
1.319999999999999993e-03
1.364999999999999894e-03
1.319999999999999993e-03
1.245999999999999929e-03
1.244000000000000097e-03
1.322000000000000041e-03
1.366999999999999943e-03
1.317999999999999944e-03
1.240000000000000000e-03
1.234999999999999987e-03
1.314000000000000064e-03
1.366999999999999943e-03
1.319999999999999993e-03
1.234000000000000071e-03
1.229999999999999974e-03
1.307999999999999918e-03
1.355000000000000085e-03
1.307000000000000002e-03
1.226000000000000093e-03
1.216000000000000067e-03
1.296000000000000060e-03
1.347000000000000107e-03
1.294999999999999927e-03
1.214000000000000018e-03
1.206999999999999957e-03
1.283000000000000069e-03
1.327999999999999970e-03
1.280000000000000105e-03
1.198999999999999979e-03
1.193000000000000050e-03
1.266999999999999897e-03
1.319000000000000077e-03
1.275000000000000092e-03
1.196000000000000014e-03
1.196000000000000014e-03
1.286000000000000034e-03
1.340999999999999961e-03
1.297999999999999892e-03
1.222999999999999912e-03
1.221000000000000080e-03
1.301000000000000073e-03
1.353000000000000036e-03
1.312000000000000015e-03
1.234999999999999987e-03
1.227000000000000009e-03
1.302999999999999905e-03
1.351999999999999903e-03
1.309000000000000051e-03
1.227000000000000009e-03
1.217999999999999899e-03
1.296999999999999976e-03
1.348000000000000023e-03
1.301999999999999989e-03
1.221000000000000080e-03
1.221000000000000080e-03
1.296000000000000060e-03
1.350000000000000071e-03
1.306000000000000086e-03
1.227000000000000009e-03
1.217999999999999899e-03
1.299999999999999940e-03
1.353000000000000036e-03
1.309000000000000051e-03
1.234000000000000071e-03
1.222999999999999912e-03
1.299999999999999940e-03
1.353999999999999952e-03
1.312000000000000015e-03
1.232999999999999938e-03
1.226000000000000093e-03
1.309000000000000051e-03
1.356000000000000000e-03
1.309999999999999967e-03
1.231000000000000106e-03
1.224000000000000045e-03
1.301999999999999989e-03
1.356999999999999916e-03
1.315999999999999896e-03
1.232999999999999938e-03
1.227999999999999925e-03
1.314000000000000064e-03
1.366000000000000027e-03
1.319000000000000077e-03
1.235999999999999903e-03
1.229999999999999974e-03
1.301999999999999989e-03
1.351999999999999903e-03
1.309000000000000051e-03
1.229999999999999974e-03
1.221000000000000080e-03
1.304000000000000038e-03
1.355000000000000085e-03
1.311000000000000099e-03
1.234000000000000071e-03
1.224999999999999960e-03
1.302999999999999905e-03
1.355000000000000085e-03
1.312000000000000015e-03
1.232000000000000022e-03
1.222999999999999912e-03
1.299999999999999940e-03
1.356000000000000000e-03
1.312000000000000015e-03
1.232999999999999938e-03
1.226000000000000093e-03
1.304000000000000038e-03
1.350999999999999987e-03
1.314000000000000064e-03
1.235999999999999903e-03
1.224000000000000045e-03
1.301999999999999989e-03
1.355000000000000085e-03
1.311000000000000099e-03
1.232000000000000022e-03
1.226000000000000093e-03
1.297999999999999892e-03
1.348999999999999939e-03
1.311000000000000099e-03
1.234999999999999987e-03
1.219000000000000031e-03
1.296000000000000060e-03
1.355000000000000085e-03
1.317999999999999944e-03
1.242999999999999964e-03
1.234999999999999987e-03
1.320999999999999909e-03
1.386000000000000079e-03
1.350999999999999987e-03
1.270999999999999994e-03
1.252999999999999991e-03
1.317000000000000028e-03
1.361000000000000014e-03
1.317000000000000028e-03
1.242999999999999964e-03
1.231000000000000106e-03
1.314999999999999980e-03
1.374999999999999920e-03
1.327999999999999970e-03
1.247000000000000062e-03
1.237000000000000035e-03
1.307000000000000002e-03
1.347000000000000107e-03
1.299999999999999940e-03
1.226000000000000093e-03
1.216000000000000067e-03
1.296000000000000060e-03
1.356999999999999916e-03
1.315999999999999896e-03
1.232999999999999938e-03
1.221000000000000080e-03
1.294000000000000011e-03
1.348000000000000023e-03
1.307000000000000002e-03
1.229000000000000058e-03
1.217999999999999899e-03
1.296000000000000060e-03
1.356000000000000000e-03
1.319000000000000077e-03
1.237999999999999951e-03
1.232000000000000022e-03
1.309999999999999967e-03
1.364999999999999894e-03
1.327000000000000055e-03
1.283999999999999985e-03
1.314000000000000064e-03
1.384000000000000031e-03
1.402999999999999950e-03
1.296000000000000060e-03
1.149999999999999981e-03
1.113000000000000057e-03
1.216999999999999983e-03
1.325999999999999922e-03
1.239000000000000084e-03
1.265999999999999981e-03
1.484999999999999992e-03
1.585000000000000037e-03
1.583999999999999905e-03
1.543000000000000101e-03
1.369999999999999907e-03
1.232000000000000022e-03
1.268999999999999946e-03
1.340000000000000045e-03
1.332000000000000068e-03
1.271999999999999910e-03
1.258000000000000004e-03
1.329000000000000103e-03
1.384000000000000031e-03
1.340000000000000045e-03
1.257000000000000088e-03
1.245000000000000013e-03
1.330000000000000019e-03
1.391000000000000092e-03
1.347000000000000107e-03
1.268000000000000030e-03
1.252000000000000075e-03
1.325999999999999922e-03
1.381999999999999982e-03
1.342000000000000094e-03
1.262000000000000101e-03
1.250000000000000026e-03
1.322999999999999957e-03
1.373000000000000088e-03
1.337999999999999997e-03
1.255999999999999955e-03
1.245000000000000013e-03
1.319999999999999993e-03
1.368999999999999991e-03
1.327999999999999970e-03
1.253999999999999906e-03
1.237999999999999951e-03
1.314999999999999980e-03
1.373000000000000088e-03
1.335999999999999948e-03
1.257000000000000088e-03
1.237000000000000035e-03
1.312000000000000015e-03
1.366000000000000027e-03
1.324000000000000090e-03
1.242999999999999964e-03
1.224000000000000045e-03
1.294999999999999927e-03
1.353999999999999952e-03
1.312000000000000015e-03
1.229000000000000058e-03
1.211999999999999970e-03
1.293000000000000095e-03
1.355000000000000085e-03
1.306000000000000086e-03
1.222999999999999912e-03
1.201999999999999943e-03
1.271999999999999910e-03
1.325000000000000006e-03
1.281999999999999936e-03
1.201000000000000028e-03
1.186999999999999904e-03
1.258000000000000004e-03
1.314000000000000064e-03
1.283000000000000069e-03
1.213000000000000102e-03
1.203999999999999992e-03
1.286000000000000034e-03
1.345999999999999974e-03
1.312000000000000015e-03
1.234999999999999987e-03
1.224999999999999960e-03
1.304000000000000038e-03
1.361000000000000014e-03
1.322999999999999957e-03
1.242999999999999964e-03
1.221000000000000080e-03
1.296999999999999976e-03
1.361000000000000014e-03
1.325000000000000006e-03
1.245999999999999929e-03
1.227000000000000009e-03
1.301000000000000073e-03
1.356999999999999916e-03
1.317999999999999944e-03
1.234000000000000071e-03
1.216999999999999983e-03
1.293000000000000095e-03
1.353000000000000036e-03
1.320999999999999909e-03
1.239000000000000084e-03
1.226000000000000093e-03
1.304000000000000038e-03
1.361000000000000014e-03
1.324000000000000090e-03
1.250000000000000026e-03
1.234999999999999987e-03
1.312999999999999931e-03
1.369999999999999907e-03
1.332999999999999984e-03
1.252000000000000075e-03
1.234000000000000071e-03
1.312000000000000015e-03
1.373000000000000088e-03
1.335000000000000032e-03
1.253999999999999906e-03
1.234000000000000071e-03
1.307000000000000002e-03
1.368999999999999991e-03
1.332000000000000068e-03
1.250000000000000026e-03
1.231000000000000106e-03
1.304000000000000038e-03
1.363000000000000062e-03
1.325000000000000006e-03
1.245999999999999929e-03
1.222999999999999912e-03
1.296999999999999976e-03
1.356000000000000000e-03
1.317999999999999944e-03
1.239000000000000084e-03
1.227000000000000009e-03
1.304999999999999953e-03
1.361000000000000014e-03
1.324000000000000090e-03
1.244000000000000097e-03
1.221999999999999996e-03
1.293000000000000095e-03
1.353999999999999952e-03
1.317000000000000028e-03
1.237999999999999951e-03
1.224999999999999960e-03
1.299000000000000024e-03
1.358000000000000049e-03
1.317999999999999944e-03
1.240000000000000000e-03
1.224999999999999960e-03
1.294999999999999927e-03
1.355000000000000085e-03
1.325000000000000006e-03
1.242999999999999964e-03
1.224000000000000045e-03
1.296000000000000060e-03
1.356999999999999916e-03
1.322000000000000041e-03
1.240000000000000000e-03
1.219999999999999947e-03
1.296000000000000060e-03
1.358000000000000049e-03
1.327999999999999970e-03
1.245000000000000013e-03
1.224999999999999960e-03
1.294999999999999927e-03
1.355000000000000085e-03
1.317999999999999944e-03
1.235999999999999903e-03
1.222999999999999912e-03
1.299999999999999940e-03
1.363999999999999978e-03
1.330000000000000019e-03
1.248999999999999893e-03
1.232999999999999938e-03
1.312999999999999931e-03
1.381999999999999982e-03
1.355000000000000085e-03
1.271999999999999910e-03
1.240999999999999916e-03
1.302999999999999905e-03
1.348999999999999939e-03
1.309000000000000051e-03
1.232999999999999938e-03
1.224000000000000045e-03
1.312999999999999931e-03
1.373000000000000088e-03
1.329000000000000103e-03
1.247999999999999977e-03
1.221000000000000080e-03
1.278000000000000056e-03
1.330000000000000019e-03
1.299999999999999940e-03
1.224999999999999960e-03
1.208000000000000089e-03
1.284999999999999901e-03
1.350000000000000071e-03
1.317999999999999944e-03
1.234999999999999987e-03
1.213000000000000102e-03
1.286000000000000034e-03
1.347000000000000107e-03
1.309999999999999967e-03
1.224999999999999960e-03
1.203000000000000076e-03
1.286999999999999950e-03
1.353000000000000036e-03
1.315999999999999896e-03
1.232999999999999938e-03
1.211000000000000054e-03
1.286999999999999950e-03
1.347000000000000107e-03
1.335999999999999948e-03
1.306000000000000086e-03
1.302999999999999905e-03
1.348999999999999939e-03
1.356999999999999916e-03
1.247999999999999977e-03
1.118999999999999986e-03
1.092000000000000089e-03
1.222999999999999912e-03
1.283999999999999985e-03
1.229000000000000058e-03
1.363999999999999978e-03
1.507000000000000093e-03
1.533999999999999990e-03
1.582000000000000073e-03
1.531000000000000026e-03
1.312000000000000015e-03
1.198000000000000063e-03
1.258999999999999920e-03
1.348000000000000023e-03
1.347000000000000107e-03
1.275000000000000092e-03
1.248999999999999893e-03
1.317999999999999944e-03
1.378000000000000102e-03
1.350000000000000071e-03
1.273000000000000043e-03
1.245999999999999929e-03
1.317999999999999944e-03
1.381000000000000066e-03
1.350999999999999987e-03
1.280000000000000105e-03
1.253999999999999906e-03
1.319999999999999993e-03
1.381999999999999982e-03
1.348000000000000023e-03
1.265000000000000065e-03
1.239000000000000084e-03
1.312999999999999931e-03
1.376999999999999969e-03
1.345000000000000058e-03
1.260000000000000052e-03
1.234999999999999987e-03
1.312000000000000015e-03
1.373000000000000088e-03
1.338999999999999913e-03
1.258999999999999920e-03
1.232999999999999938e-03
1.301999999999999989e-03
1.364999999999999894e-03
1.332999999999999984e-03
1.255999999999999955e-03
1.232000000000000022e-03
1.297999999999999892e-03
1.358999999999999965e-03
1.327999999999999970e-03
1.244000000000000097e-03
1.219000000000000031e-03
1.289999999999999914e-03
1.355000000000000085e-03
1.324000000000000090e-03
1.237999999999999951e-03
1.211999999999999970e-03
1.278000000000000056e-03
1.335999999999999948e-03
1.301999999999999989e-03
1.222999999999999912e-03
1.193000000000000050e-03
1.258999999999999920e-03
1.325000000000000006e-03
1.289999999999999914e-03
1.206000000000000041e-03
1.185000000000000072e-03
1.255000000000000039e-03
1.317999999999999944e-03
1.293000000000000095e-03
1.219999999999999947e-03
1.203000000000000076e-03
1.280000000000000105e-03
1.345999999999999974e-03
1.319999999999999993e-03
1.242999999999999964e-03
1.219999999999999947e-03
1.294999999999999927e-03
1.355000000000000085e-03
1.320999999999999909e-03
1.239000000000000084e-03
1.214000000000000018e-03
1.286000000000000034e-03
1.356999999999999916e-03
1.332999999999999984e-03
1.247000000000000062e-03
1.217999999999999899e-03
1.288999999999999998e-03
1.350999999999999987e-03
1.325000000000000006e-03
1.247000000000000062e-03
1.221999999999999996e-03
1.294999999999999927e-03
1.358000000000000049e-03
1.330000000000000019e-03
1.248999999999999893e-03
1.222999999999999912e-03
1.297999999999999892e-03
1.366000000000000027e-03
1.338999999999999913e-03
1.253999999999999906e-03
1.229000000000000058e-03
1.299999999999999940e-03
1.371000000000000040e-03
1.345000000000000058e-03
1.260999999999999968e-03
1.231000000000000106e-03
1.301999999999999989e-03
1.368000000000000075e-03
1.343000000000000010e-03
1.266999999999999897e-03
1.239000000000000084e-03
1.309999999999999967e-03
1.371999999999999956e-03
1.340000000000000045e-03
1.265000000000000065e-03
1.240000000000000000e-03
1.304000000000000038e-03
1.366999999999999943e-03
1.340000000000000045e-03
1.255000000000000039e-03
1.231000000000000106e-03
1.301999999999999989e-03
1.366000000000000027e-03
1.337000000000000081e-03
1.255999999999999955e-03
1.229000000000000058e-03
1.294999999999999927e-03
1.360000000000000098e-03
1.332999999999999984e-03
1.250999999999999942e-03
1.222999999999999912e-03
1.296999999999999976e-03
1.369999999999999907e-03
1.340999999999999961e-03
1.260000000000000052e-03
1.232000000000000022e-03
1.301000000000000073e-03
1.363000000000000062e-03
1.335999999999999948e-03
1.253999999999999906e-03
1.227000000000000009e-03
1.296999999999999976e-03
1.361999999999999929e-03
1.337000000000000081e-03
1.255000000000000039e-03
1.226000000000000093e-03
1.296000000000000060e-03
1.364999999999999894e-03
1.343000000000000010e-03
1.260999999999999968e-03
1.229999999999999974e-03
1.299000000000000024e-03
1.363999999999999978e-03
1.333999999999999899e-03
1.255000000000000039e-03
1.227999999999999925e-03
1.296000000000000060e-03
1.368999999999999991e-03
1.343999999999999926e-03
1.260000000000000052e-03
1.226000000000000093e-03
1.294000000000000011e-03
1.360000000000000098e-03
1.333999999999999899e-03
1.253999999999999906e-03
1.227000000000000009e-03
1.302999999999999905e-03
1.368000000000000075e-03
1.342000000000000094e-03
1.260999999999999968e-03
1.229000000000000058e-03
1.301999999999999989e-03
1.371999999999999956e-03
1.351999999999999903e-03
1.271999999999999910e-03
1.245999999999999929e-03
1.319999999999999993e-03
1.391000000000000092e-03
1.371999999999999956e-03
1.296999999999999976e-03
1.258000000000000004e-03
1.314000000000000064e-03
1.368000000000000075e-03
1.337999999999999997e-03
1.260999999999999968e-03
1.237999999999999951e-03
1.317999999999999944e-03
1.394999999999999973e-03
1.361000000000000014e-03
1.273999999999999959e-03
1.244000000000000097e-03
1.301000000000000073e-03
1.355000000000000085e-03
1.327000000000000055e-03
1.252000000000000075e-03
1.224000000000000045e-03
1.297999999999999892e-03
1.368999999999999991e-03
1.343999999999999926e-03
1.255999999999999955e-03
1.227999999999999925e-03
1.299999999999999940e-03
1.360000000000000098e-03
1.337000000000000081e-03
1.260000000000000052e-03
1.229000000000000058e-03
1.296000000000000060e-03
1.366000000000000027e-03
1.350000000000000071e-03
1.275000000000000092e-03
1.237999999999999951e-03
1.304000000000000038e-03
1.374999999999999920e-03
1.364999999999999894e-03
1.320999999999999909e-03
1.325000000000000006e-03
1.381999999999999982e-03
1.402999999999999950e-03
1.304999999999999953e-03
1.157999999999999958e-03
1.100999999999999982e-03
1.204999999999999908e-03
1.315999999999999896e-03
1.232999999999999938e-03
1.294000000000000011e-03
1.497000000000000067e-03
1.575000000000000011e-03
1.606000000000000006e-03
1.590000000000000050e-03
1.392999999999999924e-03
1.227999999999999925e-03
1.258999999999999920e-03
1.355000000000000085e-03
1.363000000000000062e-03
1.294999999999999927e-03
1.263000000000000017e-03
1.325999999999999922e-03
1.394000000000000057e-03
1.371999999999999956e-03
1.288999999999999998e-03
1.258000000000000004e-03
1.330999999999999935e-03
1.402000000000000034e-03
1.374000000000000004e-03
1.286999999999999950e-03
1.260000000000000052e-03
1.322999999999999957e-03
1.389000000000000044e-03
1.369999999999999907e-03
1.286999999999999950e-03
1.253999999999999906e-03
1.322999999999999957e-03
1.394999999999999973e-03
1.371999999999999956e-03
1.291999999999999963e-03
1.258000000000000004e-03
1.320999999999999909e-03
1.384999999999999946e-03
1.363999999999999978e-03
1.278999999999999972e-03
1.247000000000000062e-03
1.307999999999999918e-03
1.379000000000000017e-03
1.356999999999999916e-03
1.278999999999999972e-03
1.244000000000000097e-03
1.314000000000000064e-03
1.379000000000000017e-03
1.356000000000000000e-03
1.273000000000000043e-03
1.232000000000000022e-03
1.294999999999999927e-03
1.366000000000000027e-03
1.338999999999999913e-03
1.262000000000000101e-03
1.224000000000000045e-03
1.283000000000000069e-03
1.347000000000000107e-03
1.322000000000000041e-03
1.237999999999999951e-03
1.201000000000000028e-03
1.265000000000000065e-03
1.330000000000000019e-03
1.301999999999999989e-03
1.219000000000000031e-03
1.178999999999999927e-03
1.242000000000000048e-03
1.312999999999999931e-03
1.301000000000000073e-03
1.229999999999999974e-03
1.201000000000000028e-03
1.278999999999999972e-03
1.356999999999999916e-03
1.340000000000000045e-03
1.258999999999999920e-03
1.232000000000000022e-03
1.299000000000000024e-03
1.369999999999999907e-03
1.353000000000000036e-03
1.270999999999999994e-03
1.232999999999999938e-03
1.299999999999999940e-03
1.368999999999999991e-03
1.347000000000000107e-03
1.266999999999999897e-03
1.232000000000000022e-03
1.301999999999999989e-03
1.373000000000000088e-03
1.348999999999999939e-03
1.268999999999999946e-03
1.232000000000000022e-03
1.299000000000000024e-03
1.373000000000000088e-03
1.353000000000000036e-03
1.275000000000000092e-03
1.240999999999999916e-03
1.309999999999999967e-03
1.378000000000000102e-03
1.356000000000000000e-03
1.275000000000000092e-03
1.240000000000000000e-03
1.306000000000000086e-03
1.376000000000000053e-03
1.358000000000000049e-03
1.281999999999999936e-03
1.247999999999999977e-03
1.315999999999999896e-03
1.384999999999999946e-03
1.364999999999999894e-03
1.284999999999999901e-03
1.248999999999999893e-03
1.309999999999999967e-03
1.379000000000000017e-03
1.361000000000000014e-03
1.284999999999999901e-03
1.247999999999999977e-03
1.307999999999999918e-03
1.378000000000000102e-03
1.363999999999999978e-03
1.289999999999999914e-03
1.250999999999999942e-03
1.315999999999999896e-03
1.381999999999999982e-03
1.363999999999999978e-03
1.283000000000000069e-03
1.245000000000000013e-03
1.306000000000000086e-03
1.373000000000000088e-03
1.353999999999999952e-03
1.273999999999999959e-03
1.245000000000000013e-03
1.307999999999999918e-03
1.376999999999999969e-03
1.356000000000000000e-03
1.278000000000000056e-03
1.245000000000000013e-03
1.307999999999999918e-03
1.374999999999999920e-03
1.355000000000000085e-03
1.275000000000000092e-03
1.237000000000000035e-03
1.304000000000000038e-03
1.374000000000000004e-03
1.353999999999999952e-03
1.273000000000000043e-03
1.240000000000000000e-03
1.304999999999999953e-03
1.371000000000000040e-03
1.356000000000000000e-03
1.270000000000000078e-03
1.231000000000000106e-03
1.291999999999999963e-03
1.366999999999999943e-03
1.358999999999999965e-03
1.280000000000000105e-03
1.240999999999999916e-03
1.302999999999999905e-03
1.371000000000000040e-03
1.355000000000000085e-03
1.270999999999999994e-03
1.235999999999999903e-03
1.301000000000000073e-03
1.373000000000000088e-03
1.358999999999999965e-03
1.276000000000000007e-03
1.231000000000000106e-03
1.296000000000000060e-03
1.368000000000000075e-03
1.353999999999999952e-03
1.276999999999999923e-03
1.237999999999999951e-03
1.297999999999999892e-03
1.371000000000000040e-03
1.356999999999999916e-03
1.278999999999999972e-03
1.245999999999999929e-03
1.314000000000000064e-03
1.389999999999999960e-03
1.379999999999999933e-03
1.304000000000000038e-03
1.268999999999999946e-03
1.325999999999999922e-03
1.382999999999999898e-03
1.358999999999999965e-03
1.273999999999999959e-03
1.235999999999999903e-03
1.304000000000000038e-03
1.386999999999999995e-03
1.386000000000000079e-03
1.297999999999999892e-03
1.247000000000000062e-03
1.307999999999999918e-03
1.371000000000000040e-03
1.337000000000000081e-03
1.258999999999999920e-03
1.229999999999999974e-03
1.294999999999999927e-03
1.364999999999999894e-03
1.356000000000000000e-03
1.271999999999999910e-03
1.226000000000000093e-03
1.288000000000000082e-03
1.358999999999999965e-03
1.340999999999999961e-03
1.268000000000000030e-03
1.231000000000000106e-03
1.294999999999999927e-03
1.366999999999999943e-03
1.353999999999999952e-03
1.276000000000000007e-03
1.240000000000000000e-03
1.299999999999999940e-03
1.371000000000000040e-03
1.358000000000000049e-03
1.286999999999999950e-03
1.283000000000000069e-03
1.381999999999999982e-03
1.441000000000000007e-03
1.384999999999999946e-03
1.240999999999999916e-03
1.136000000000000074e-03
1.175000000000000046e-03
1.276999999999999923e-03
1.309000000000000051e-03
1.142999999999999919e-03
1.211999999999999970e-03
1.521999999999999915e-03
1.670000000000000043e-03
1.631000000000000071e-03
1.582000000000000073e-03
1.431999999999999896e-03
1.312999999999999931e-03
1.311000000000000099e-03
1.311000000000000099e-03
1.263000000000000017e-03
1.248999999999999893e-03
1.325999999999999922e-03
1.399000000000000070e-03
1.387999999999999911e-03
1.306000000000000086e-03
1.260000000000000052e-03
1.315999999999999896e-03
1.389000000000000044e-03
1.376000000000000053e-03
1.296000000000000060e-03
1.258999999999999920e-03
1.314000000000000064e-03
1.381000000000000066e-03
1.368000000000000075e-03
1.288999999999999998e-03
1.250999999999999942e-03
1.311000000000000099e-03
1.381000000000000066e-03
1.366999999999999943e-03
1.283999999999999985e-03
1.242000000000000048e-03
1.301999999999999989e-03
1.373000000000000088e-03
1.363999999999999978e-03
1.278999999999999972e-03
1.232000000000000022e-03
1.288000000000000082e-03
1.361999999999999929e-03
1.350999999999999987e-03
1.273999999999999959e-03
1.232000000000000022e-03
1.293000000000000095e-03
1.366000000000000027e-03
1.353000000000000036e-03
1.271999999999999910e-03
1.227999999999999925e-03
1.283000000000000069e-03
1.358999999999999965e-03
1.343999999999999926e-03
1.262000000000000101e-03
1.219000000000000031e-03
1.271999999999999910e-03
1.340999999999999961e-03
1.322999999999999957e-03
1.235999999999999903e-03
1.193999999999999966e-03
1.255000000000000039e-03
1.322000000000000041e-03
1.304999999999999953e-03
1.222999999999999912e-03
1.173999999999999913e-03
1.229999999999999974e-03
1.301000000000000073e-03
1.294000000000000011e-03
1.216999999999999983e-03
1.180000000000000059e-03
1.244000000000000097e-03
1.325000000000000006e-03
1.322999999999999957e-03
1.255000000000000039e-03
1.219000000000000031e-03
1.278000000000000056e-03
1.347000000000000107e-03
1.335000000000000032e-03
1.255999999999999955e-03
1.211999999999999970e-03
1.270999999999999994e-03
1.343000000000000010e-03
1.332999999999999984e-03
1.252999999999999991e-03
1.209000000000000005e-03
1.265000000000000065e-03
1.340999999999999961e-03
1.332999999999999984e-03
1.253999999999999906e-03
1.209999999999999921e-03
1.265000000000000065e-03
1.338999999999999913e-03
1.327000000000000055e-03
1.252000000000000075e-03
1.221000000000000080e-03
1.275000000000000092e-03
1.342000000000000094e-03
1.335999999999999948e-03
1.260000000000000052e-03
1.216000000000000067e-03
1.276999999999999923e-03
1.350000000000000071e-03
1.340000000000000045e-03
1.262000000000000101e-03
1.216999999999999983e-03
1.273999999999999959e-03
1.345000000000000058e-03
1.340999999999999961e-03
1.262000000000000101e-03
1.214000000000000018e-03
1.271999999999999910e-03
1.345000000000000058e-03
1.332999999999999984e-03
1.252999999999999991e-03
1.211999999999999970e-03
1.270000000000000078e-03
1.337999999999999997e-03
1.329000000000000103e-03
1.250999999999999942e-03
1.203000000000000076e-03
1.257000000000000088e-03
1.332999999999999984e-03
1.330000000000000019e-03
1.250999999999999942e-03
1.203999999999999992e-03
1.257000000000000088e-03
1.337999999999999997e-03
1.327000000000000055e-03
1.245999999999999929e-03
1.198999999999999979e-03
1.252999999999999991e-03
1.327999999999999970e-03
1.322999999999999957e-03
1.240999999999999916e-03
1.196999999999999930e-03
1.250999999999999942e-03
1.322000000000000041e-03
1.317000000000000028e-03
1.237999999999999951e-03
1.191000000000000001e-03
1.248999999999999893e-03
1.327999999999999970e-03
1.319000000000000077e-03
1.235999999999999903e-03
1.188999999999999953e-03
1.239000000000000084e-03
1.317000000000000028e-03
1.315999999999999896e-03
1.237000000000000035e-03
1.186999999999999904e-03
1.244000000000000097e-03
1.322000000000000041e-03
1.314000000000000064e-03
1.232000000000000022e-03
1.183999999999999940e-03
1.239000000000000084e-03
1.315999999999999896e-03
1.309999999999999967e-03
1.232000000000000022e-03
1.182000000000000108e-03
1.237999999999999951e-03
1.319999999999999993e-03
1.322999999999999957e-03
1.252000000000000075e-03
1.211000000000000054e-03
1.276000000000000007e-03
1.361999999999999929e-03
1.355000000000000085e-03
1.273000000000000043e-03
1.211000000000000054e-03
1.257000000000000088e-03
1.335000000000000032e-03
1.327999999999999970e-03
1.250999999999999942e-03
1.213000000000000102e-03
1.268999999999999946e-03
1.335999999999999948e-03
1.327000000000000055e-03
1.247000000000000062e-03
1.188999999999999953e-03
1.232000000000000022e-03
1.317999999999999944e-03
1.319999999999999993e-03
1.237999999999999951e-03
1.188999999999999953e-03
1.242999999999999964e-03
1.315999999999999896e-03
1.306000000000000086e-03
1.231000000000000106e-03
1.180000000000000059e-03
1.234000000000000071e-03
1.312000000000000015e-03
1.306000000000000086e-03
1.221999999999999996e-03
1.173999999999999913e-03
1.232999999999999938e-03
1.312000000000000015e-03
1.304000000000000038e-03
1.224000000000000045e-03
1.173999999999999913e-03
1.227999999999999925e-03
1.311000000000000099e-03
1.343000000000000010e-03
1.311000000000000099e-03
1.258000000000000004e-03
1.276000000000000007e-03
1.291000000000000047e-03
1.219999999999999947e-03
1.118000000000000070e-03
1.088999999999999907e-03
1.203999999999999992e-03
1.226000000000000093e-03
1.306000000000000086e-03
1.477000000000000014e-03
1.494000000000000102e-03
1.489000000000000089e-03
1.570999999999999914e-03
1.482999999999999943e-03
1.250999999999999942e-03
1.136000000000000074e-03
1.198000000000000063e-03
1.307000000000000002e-03
1.325000000000000006e-03
1.250999999999999942e-03
1.203999999999999992e-03
1.260999999999999968e-03
1.340999999999999961e-03
1.337999999999999997e-03
1.263000000000000017e-03
1.208000000000000089e-03
1.258999999999999920e-03
1.335000000000000032e-03
1.332999999999999984e-03
1.257000000000000088e-03
1.204999999999999908e-03
1.257000000000000088e-03
1.332000000000000068e-03
1.329000000000000103e-03
1.258999999999999920e-03
1.209999999999999921e-03
1.257000000000000088e-03
1.335000000000000032e-03
1.330000000000000019e-03
1.250000000000000026e-03
1.199999999999999895e-03
1.248999999999999893e-03
1.322000000000000041e-03
1.317000000000000028e-03
1.242000000000000048e-03
1.191999999999999917e-03
1.244000000000000097e-03
1.320999999999999909e-03
1.317000000000000028e-03
1.239000000000000084e-03
1.188000000000000037e-03
1.237000000000000035e-03
1.317999999999999944e-03
1.319999999999999993e-03
1.242999999999999964e-03
1.186999999999999904e-03
1.234999999999999987e-03
1.307999999999999918e-03
1.306000000000000086e-03
1.226000000000000093e-03
1.170000000000000033e-03
1.214999999999999934e-03
1.288000000000000082e-03
1.281000000000000021e-03
1.206000000000000041e-03
1.157000000000000042e-03
1.199999999999999895e-03
1.270999999999999994e-03
1.268999999999999946e-03
1.190000000000000085e-03
1.139999999999999954e-03
1.196999999999999930e-03
1.276000000000000007e-03
1.283000000000000069e-03
1.214999999999999934e-03
1.165999999999999936e-03
1.221999999999999996e-03
1.302999999999999905e-03
1.304000000000000038e-03
1.221999999999999996e-03
1.173999999999999913e-03
1.232000000000000022e-03
1.307999999999999918e-03
1.309999999999999967e-03
1.232000000000000022e-03
1.175000000000000046e-03
1.222999999999999912e-03
1.297999999999999892e-03
1.294000000000000011e-03
1.221000000000000080e-03
1.168999999999999900e-03
1.216999999999999983e-03
1.294999999999999927e-03
1.293000000000000095e-03
1.219000000000000031e-03
1.167000000000000069e-03
1.219000000000000031e-03
1.296999999999999976e-03
1.296000000000000060e-03
1.224000000000000045e-03
1.170000000000000033e-03
1.214999999999999934e-03
1.296999999999999976e-03
1.297999999999999892e-03
1.221999999999999996e-03
1.175999999999999962e-03
1.226000000000000093e-03
1.299999999999999940e-03
1.304999999999999953e-03
1.226000000000000093e-03
1.173999999999999913e-03
1.221999999999999996e-03
1.301999999999999989e-03
1.304999999999999953e-03
1.226000000000000093e-03
1.175000000000000046e-03
1.221000000000000080e-03
1.301000000000000073e-03
1.304999999999999953e-03
1.227000000000000009e-03
1.178999999999999927e-03
1.229999999999999974e-03
1.306000000000000086e-03
1.309999999999999967e-03
1.229999999999999974e-03
1.173999999999999913e-03
1.221000000000000080e-03
1.296000000000000060e-03
1.296999999999999976e-03
1.221000000000000080e-03
1.168999999999999900e-03
1.214999999999999934e-03
1.294999999999999927e-03
1.297999999999999892e-03
1.214999999999999934e-03
1.159000000000000091e-03
1.208000000000000089e-03
1.286000000000000034e-03
1.289999999999999914e-03
1.214000000000000018e-03
1.162000000000000055e-03
1.206000000000000041e-03
1.283000000000000069e-03
1.284999999999999901e-03
1.209999999999999921e-03
1.167000000000000069e-03
1.219000000000000031e-03
1.288999999999999998e-03
1.288999999999999998e-03
1.214999999999999934e-03
1.157999999999999958e-03
1.206999999999999957e-03
1.289999999999999914e-03
1.291999999999999963e-03
1.214000000000000018e-03
1.157999999999999958e-03
1.203000000000000076e-03
1.278999999999999972e-03
1.284999999999999901e-03
1.209999999999999921e-03
1.159000000000000091e-03
1.211999999999999970e-03
1.288000000000000082e-03
1.291999999999999963e-03
1.216000000000000067e-03
1.157999999999999958e-03
1.206000000000000041e-03
1.286000000000000034e-03
1.289999999999999914e-03
1.214000000000000018e-03
1.157000000000000042e-03
1.201999999999999943e-03
1.278999999999999972e-03
1.284999999999999901e-03
1.213000000000000102e-03
1.160000000000000007e-03
1.208000000000000089e-03
1.294000000000000011e-03
1.301000000000000073e-03
1.229999999999999974e-03
1.183000000000000024e-03
1.232000000000000022e-03
1.309999999999999967e-03
1.302999999999999905e-03
1.219999999999999947e-03
1.154000000000000078e-03
1.204999999999999908e-03
1.288000000000000082e-03
1.304000000000000038e-03
1.237000000000000035e-03
1.173999999999999913e-03
1.211999999999999970e-03
1.294000000000000011e-03
1.293000000000000095e-03
1.203999999999999992e-03
1.142000000000000003e-03
1.190000000000000085e-03
1.271999999999999910e-03
1.278999999999999972e-03
1.203000000000000076e-03
1.154000000000000078e-03
1.198999999999999979e-03
1.275000000000000092e-03
1.281000000000000021e-03
1.208000000000000089e-03
1.149999999999999981e-03
1.193999999999999966e-03
1.273999999999999959e-03
1.278000000000000056e-03
1.203000000000000076e-03
1.149000000000000065e-03
1.196000000000000014e-03
1.271999999999999910e-03
1.278999999999999972e-03
1.209000000000000005e-03
1.162000000000000055e-03
1.234000000000000071e-03
1.360000000000000098e-03
1.366000000000000027e-03
1.257000000000000088e-03
1.139000000000000038e-03
1.105999999999999995e-03
1.155999999999999910e-03
1.188000000000000037e-03
1.178000000000000011e-03
1.090999999999999956e-03
1.198000000000000063e-03
1.528000000000000061e-03
1.608999999999999970e-03
1.466000000000000072e-03
1.404000000000000083e-03
1.369999999999999907e-03
1.304000000000000038e-03
1.250000000000000026e-03
1.185999999999999988e-03
1.157999999999999958e-03
1.226000000000000093e-03
1.301999999999999989e-03
1.309000000000000051e-03
1.242000000000000048e-03
1.185999999999999988e-03
1.224999999999999960e-03
1.299999999999999940e-03
1.312000000000000015e-03
1.234999999999999987e-03
1.178000000000000011e-03
1.229000000000000058e-03
1.309000000000000051e-03
1.315999999999999896e-03
1.242000000000000048e-03
1.183999999999999940e-03
1.224999999999999960e-03
1.302999999999999905e-03
1.309000000000000051e-03
1.237999999999999951e-03
1.185000000000000072e-03
1.219999999999999947e-03
1.299000000000000024e-03
1.306000000000000086e-03
1.234999999999999987e-03
1.175000000000000046e-03
1.214000000000000018e-03
1.291000000000000047e-03
1.299000000000000024e-03
1.227000000000000009e-03
1.175000000000000046e-03
1.214999999999999934e-03
1.294999999999999927e-03
1.304000000000000038e-03
1.229999999999999974e-03
1.167999999999999984e-03
1.209999999999999921e-03
1.288999999999999998e-03
1.294999999999999927e-03
1.217999999999999899e-03
1.162999999999999971e-03
1.203999999999999992e-03
1.281000000000000021e-03
1.283000000000000069e-03
1.208000000000000089e-03
1.142000000000000003e-03
1.178000000000000011e-03
1.255000000000000039e-03
1.263999999999999933e-03
1.193999999999999966e-03
1.137999999999999906e-03
1.175999999999999962e-03
1.252000000000000075e-03
1.260999999999999968e-03
1.190000000000000085e-03
1.139999999999999954e-03
1.185999999999999988e-03
1.268000000000000030e-03
1.281999999999999936e-03
1.219000000000000031e-03
1.167000000000000069e-03
1.209000000000000005e-03
1.291000000000000047e-03
1.307000000000000002e-03
1.234000000000000071e-03
1.173999999999999913e-03
1.211999999999999970e-03
1.288000000000000082e-03
1.299999999999999940e-03
1.232000000000000022e-03
1.170000000000000033e-03
1.206999999999999957e-03
1.289999999999999914e-03
1.301999999999999989e-03
1.221999999999999996e-03
1.162000000000000055e-03
1.201999999999999943e-03
1.283000000000000069e-03
1.301999999999999989e-03
1.224000000000000045e-03
1.164000000000000104e-03
1.201000000000000028e-03
1.283000000000000069e-03
1.297999999999999892e-03
1.226000000000000093e-03
1.170000000000000033e-03
1.209999999999999921e-03
1.291000000000000047e-03
1.304000000000000038e-03
1.232999999999999938e-03
1.172000000000000082e-03
1.214000000000000018e-03
1.296000000000000060e-03
1.304000000000000038e-03
1.231000000000000106e-03
1.172000000000000082e-03
1.211000000000000054e-03
1.294999999999999927e-03
1.314000000000000064e-03
1.240999999999999916e-03
1.180000000000000059e-03
1.217999999999999899e-03
1.296999999999999976e-03
1.312000000000000015e-03
1.240000000000000000e-03
1.177000000000000095e-03
1.211999999999999970e-03
1.293000000000000095e-03
1.306000000000000086e-03
1.232000000000000022e-03
1.170999999999999949e-03
1.206000000000000041e-03
1.288999999999999998e-03
1.301000000000000073e-03
1.226000000000000093e-03
1.162999999999999971e-03
1.201999999999999943e-03
1.283999999999999985e-03
1.296000000000000060e-03
1.224999999999999960e-03
1.165999999999999936e-03
1.201000000000000028e-03
1.281999999999999936e-03
1.293000000000000095e-03
1.222999999999999912e-03
1.162999999999999971e-03
1.204999999999999908e-03
1.286000000000000034e-03
1.297999999999999892e-03
1.224000000000000045e-03
1.162999999999999971e-03
1.203999999999999992e-03
1.284999999999999901e-03
1.301999999999999989e-03
1.229999999999999974e-03
1.168999999999999900e-03
1.206000000000000041e-03
1.283999999999999985e-03
1.299000000000000024e-03
1.226000000000000093e-03
1.165000000000000020e-03
1.217999999999999899e-03
1.297999999999999892e-03
1.304999999999999953e-03
1.231000000000000106e-03
1.170000000000000033e-03
1.208000000000000089e-03
1.286999999999999950e-03
1.297999999999999892e-03
1.229999999999999974e-03
1.168999999999999900e-03
1.203000000000000076e-03
1.283000000000000069e-03
1.304000000000000038e-03
1.231000000000000106e-03
1.167999999999999984e-03
1.203999999999999992e-03
1.286000000000000034e-03
1.299000000000000024e-03
1.229999999999999974e-03
1.167000000000000069e-03
1.199999999999999895e-03
1.281999999999999936e-03
1.296999999999999976e-03
1.226000000000000093e-03
1.168999999999999900e-03
1.214999999999999934e-03
1.307000000000000002e-03
1.327000000000000055e-03
1.265999999999999981e-03
1.208000000000000089e-03
1.237000000000000035e-03
1.306000000000000086e-03
1.309999999999999967e-03
1.227000000000000009e-03
1.162999999999999971e-03
1.203999999999999992e-03
1.293000000000000095e-03
1.322999999999999957e-03
1.252999999999999991e-03
1.180999999999999975e-03
1.214000000000000018e-03
1.289999999999999914e-03
1.294000000000000011e-03
1.217999999999999899e-03
1.157999999999999958e-03
1.195000000000000099e-03
1.278000000000000056e-03
1.296000000000000060e-03
1.226000000000000093e-03
1.164000000000000104e-03
1.193000000000000050e-03
1.276000000000000007e-03
1.288999999999999998e-03
1.217999999999999899e-03
1.155999999999999910e-03
1.191999999999999917e-03
1.275000000000000092e-03
1.294000000000000011e-03
1.235999999999999903e-03
1.172999999999999998e-03
1.201999999999999943e-03
1.283999999999999985e-03
1.304000000000000038e-03
1.235999999999999903e-03
1.196000000000000014e-03
1.276000000000000007e-03
1.363000000000000062e-03
1.345999999999999974e-03
1.217999999999999899e-03
1.080999999999999930e-03
1.080000000000000014e-03
1.170000000000000033e-03
1.250000000000000026e-03
1.154000000000000078e-03
1.116999999999999937e-03
1.397999999999999937e-03
1.595000000000000064e-03
1.552999999999999910e-03
1.476000000000000098e-03
1.348999999999999939e-03
1.244000000000000097e-03
1.258000000000000004e-03
1.278000000000000056e-03
1.235999999999999903e-03
1.195000000000000099e-03
1.229999999999999974e-03
1.312000000000000015e-03
1.327000000000000055e-03
1.255999999999999955e-03
1.198000000000000063e-03
1.234000000000000071e-03
1.314999999999999980e-03
1.335000000000000032e-03
1.263999999999999933e-03
1.196000000000000014e-03
1.227999999999999925e-03
1.309000000000000051e-03
1.330000000000000019e-03
1.255999999999999955e-03
1.188999999999999953e-03
1.217999999999999899e-03
1.299000000000000024e-03
1.320999999999999909e-03
1.250000000000000026e-03
1.185000000000000072e-03
1.217999999999999899e-03
1.306000000000000086e-03
1.322000000000000041e-03
1.250000000000000026e-03
1.182000000000000108e-03
1.209999999999999921e-03
1.294000000000000011e-03
1.312999999999999931e-03
1.240999999999999916e-03
1.173999999999999913e-03
1.204999999999999908e-03
1.289999999999999914e-03
1.306000000000000086e-03
1.234000000000000071e-03
1.167000000000000069e-03
1.198999999999999979e-03
1.278000000000000056e-03
1.291000000000000047e-03
1.216000000000000067e-03
1.150999999999999896e-03
1.177000000000000095e-03
1.252000000000000075e-03
1.268000000000000030e-03
1.193999999999999966e-03
1.123999999999999999e-03
1.155999999999999910e-03
1.234000000000000071e-03
1.247999999999999977e-03
1.175999999999999962e-03
1.106999999999999911e-03
1.136000000000000074e-03
1.217999999999999899e-03
1.237000000000000035e-03
1.167000000000000069e-03
1.111999999999999924e-03
1.157000000000000042e-03
1.252000000000000075e-03
1.276999999999999923e-03
1.209000000000000005e-03
1.144000000000000052e-03
1.180000000000000059e-03
1.266999999999999897e-03
1.286999999999999950e-03
1.219999999999999947e-03
1.155999999999999910e-03
1.185999999999999988e-03
1.270000000000000078e-03
1.294999999999999927e-03
1.216000000000000067e-03
1.152000000000000029e-03
1.183999999999999940e-03
1.263999999999999933e-03
1.286000000000000034e-03
1.219000000000000031e-03
1.152000000000000029e-03
1.180000000000000059e-03
1.262000000000000101e-03
1.284999999999999901e-03
1.219000000000000031e-03
1.154000000000000078e-03
1.185999999999999988e-03
1.271999999999999910e-03
1.293000000000000095e-03
1.227000000000000009e-03
1.170999999999999949e-03
1.204999999999999908e-03
1.286000000000000034e-03
1.306000000000000086e-03
1.234000000000000071e-03
1.168999999999999900e-03
1.198999999999999979e-03
1.283999999999999985e-03
1.307999999999999918e-03
1.239000000000000084e-03
1.177000000000000095e-03
1.204999999999999908e-03
1.291999999999999963e-03
1.322999999999999957e-03
1.250000000000000026e-03
1.185000000000000072e-03
1.216000000000000067e-03
1.296999999999999976e-03
1.319999999999999993e-03
1.250000000000000026e-03
1.188000000000000037e-03
1.219000000000000031e-03
1.296000000000000060e-03
1.312999999999999931e-03
1.237999999999999951e-03
1.167999999999999984e-03
1.204999999999999908e-03
1.286000000000000034e-03
1.304999999999999953e-03
1.232999999999999938e-03
1.162999999999999971e-03
1.186999999999999904e-03
1.270999999999999994e-03
1.294999999999999927e-03
1.227000000000000009e-03
1.155999999999999910e-03
1.182000000000000108e-03
1.263999999999999933e-03
1.291999999999999963e-03
1.222999999999999912e-03
1.157000000000000042e-03
1.185000000000000072e-03
1.266999999999999897e-03
1.289999999999999914e-03
1.221999999999999996e-03
1.159000000000000091e-03
1.183000000000000024e-03
1.260000000000000052e-03
1.281999999999999936e-03
1.208000000000000089e-03
1.139000000000000038e-03
1.167000000000000069e-03
1.245000000000000013e-03
1.265000000000000065e-03
1.198000000000000063e-03
1.134999999999999941e-03
1.157999999999999958e-03
1.237999999999999951e-03
1.255999999999999955e-03
1.188999999999999953e-03
1.129000000000000012e-03
1.162999999999999971e-03
1.240999999999999916e-03
1.262000000000000101e-03
1.193000000000000050e-03
1.128000000000000096e-03
1.150999999999999896e-03
1.231000000000000106e-03
1.258000000000000004e-03
1.195000000000000099e-03
1.137999999999999906e-03
1.170999999999999949e-03
1.255999999999999955e-03
1.283000000000000069e-03
1.221999999999999996e-03
1.157000000000000042e-03
1.190000000000000085e-03
1.281000000000000021e-03
1.304000000000000038e-03
1.232000000000000022e-03
1.159000000000000091e-03
1.177000000000000095e-03
1.252999999999999991e-03
1.280000000000000105e-03
1.224999999999999960e-03
1.168999999999999900e-03
1.203000000000000076e-03
1.273000000000000043e-03
1.294000000000000011e-03
1.227999999999999925e-03
1.147999999999999932e-03
1.160999999999999923e-03
1.240999999999999916e-03
1.273000000000000043e-03
1.213000000000000102e-03
1.157000000000000042e-03
1.191000000000000001e-03
1.271999999999999910e-03
1.289999999999999914e-03
1.219999999999999947e-03
1.147999999999999932e-03
1.170000000000000033e-03
1.252999999999999991e-03
1.275000000000000092e-03
1.213000000000000102e-03
1.152000000000000029e-03
1.178999999999999927e-03
1.260999999999999968e-03
1.283999999999999985e-03
1.219999999999999947e-03
1.154000000000000078e-03
1.182000000000000108e-03
1.276999999999999923e-03
1.347000000000000107e-03
1.312000000000000015e-03
1.219999999999999947e-03
1.201000000000000028e-03
1.201999999999999943e-03
1.172999999999999998e-03
1.097000000000000102e-03
1.075999999999999917e-03
1.103999999999999947e-03
1.113999999999999973e-03
1.329000000000000103e-03
1.489000000000000089e-03
1.435000000000000078e-03
1.449999999999999900e-03
1.546999999999999981e-03
1.417999999999999990e-03
1.201000000000000028e-03
1.095000000000000053e-03
1.144000000000000052e-03
1.258999999999999920e-03
1.312000000000000015e-03
1.253999999999999906e-03
1.185999999999999988e-03
1.211000000000000054e-03
1.293000000000000095e-03
1.319000000000000077e-03
1.248999999999999893e-03
1.178999999999999927e-03
1.204999999999999908e-03
1.286000000000000034e-03
1.312999999999999931e-03
1.245999999999999929e-03
1.183999999999999940e-03
1.206000000000000041e-03
1.283000000000000069e-03
1.312000000000000015e-03
1.247000000000000062e-03
1.175000000000000046e-03
1.203000000000000076e-03
1.288000000000000082e-03
1.309999999999999967e-03
1.244000000000000097e-03
1.183000000000000024e-03
1.209000000000000005e-03
1.288000000000000082e-03
1.309000000000000051e-03
1.240000000000000000e-03
1.167999999999999984e-03
1.193999999999999966e-03
1.278000000000000056e-03
1.304999999999999953e-03
1.235999999999999903e-03
1.168999999999999900e-03
1.193000000000000050e-03
1.271999999999999910e-03
1.297999999999999892e-03
1.231000000000000106e-03
1.157000000000000042e-03
1.175999999999999962e-03
1.260000000000000052e-03
1.286000000000000034e-03
1.214999999999999934e-03
1.142999999999999919e-03
1.160999999999999923e-03
1.237000000000000035e-03
1.263000000000000017e-03
1.198999999999999979e-03
1.128000000000000096e-03
1.144999999999999967e-03
1.222999999999999912e-03
1.250000000000000026e-03
1.183999999999999940e-03
1.116999999999999937e-03
1.142000000000000003e-03
1.229000000000000058e-03
1.263000000000000017e-03
1.203999999999999992e-03
1.144000000000000052e-03
1.170999999999999949e-03
1.270000000000000078e-03
1.302999999999999905e-03
1.240999999999999916e-03
1.175999999999999962e-03
1.195000000000000099e-03
1.275000000000000092e-03
1.299999999999999940e-03
1.234000000000000071e-03
1.162000000000000055e-03
1.183000000000000024e-03
1.268999999999999946e-03
1.301999999999999989e-03
1.235999999999999903e-03
1.164000000000000104e-03
1.178000000000000011e-03
1.262000000000000101e-03
1.291999999999999963e-03
1.229000000000000058e-03
1.160000000000000007e-03
1.185999999999999988e-03
1.270999999999999994e-03
1.301000000000000073e-03
1.235999999999999903e-03
1.165000000000000020e-03
1.186999999999999904e-03
1.276999999999999923e-03
1.309999999999999967e-03
1.242000000000000048e-03
1.167000000000000069e-03
1.191000000000000001e-03
1.275000000000000092e-03
1.312000000000000015e-03
1.247000000000000062e-03
1.172999999999999998e-03
1.195000000000000099e-03
1.281000000000000021e-03
1.311000000000000099e-03
1.245999999999999929e-03
1.170000000000000033e-03
1.188000000000000037e-03
1.271999999999999910e-03
1.299000000000000024e-03
1.235999999999999903e-03
1.167000000000000069e-03
1.183000000000000024e-03
1.265999999999999981e-03
1.297999999999999892e-03
1.232000000000000022e-03
1.162999999999999971e-03
1.183000000000000024e-03
1.270000000000000078e-03
1.301999999999999989e-03
1.239000000000000084e-03
1.160999999999999923e-03
1.180000000000000059e-03
1.263999999999999933e-03
1.289999999999999914e-03
1.227999999999999925e-03
1.157000000000000042e-03
1.177000000000000095e-03
1.255999999999999955e-03
1.286999999999999950e-03
1.227000000000000009e-03
1.172000000000000082e-03
1.188000000000000037e-03
1.268999999999999946e-03
1.301000000000000073e-03
1.237999999999999951e-03
1.165999999999999936e-03
1.183000000000000024e-03
1.260000000000000052e-03
1.294000000000000011e-03
1.237999999999999951e-03
1.168999999999999900e-03
1.188999999999999953e-03
1.270000000000000078e-03
1.299999999999999940e-03
1.235999999999999903e-03
1.164000000000000104e-03
1.180000000000000059e-03
1.263000000000000017e-03
1.299000000000000024e-03
1.239000000000000084e-03
1.168999999999999900e-03
1.188000000000000037e-03
1.276999999999999923e-03
1.315999999999999896e-03
1.265000000000000065e-03
1.203999999999999992e-03
1.221999999999999996e-03
1.294999999999999927e-03
1.317000000000000028e-03
1.245999999999999929e-03
1.175000000000000046e-03
1.203000000000000076e-03
1.284999999999999901e-03
1.327000000000000055e-03
1.270999999999999994e-03
1.186999999999999904e-03
1.193999999999999966e-03
1.273000000000000043e-03
1.296000000000000060e-03
1.224999999999999960e-03
1.152999999999999945e-03
1.173999999999999913e-03
1.257000000000000088e-03
1.291999999999999963e-03
1.240999999999999916e-03
1.175999999999999962e-03
1.183999999999999940e-03
1.262000000000000101e-03
1.294000000000000011e-03
1.234000000000000071e-03
1.162000000000000055e-03
1.178000000000000011e-03
1.258999999999999920e-03
1.291999999999999963e-03
1.229000000000000058e-03
1.160999999999999923e-03
1.185000000000000072e-03
1.266999999999999897e-03
1.299999999999999940e-03
1.242000000000000048e-03
1.173999999999999913e-03
1.221999999999999996e-03
1.345999999999999974e-03
1.366999999999999943e-03
1.268000000000000030e-03
1.128000000000000096e-03
1.080000000000000014e-03
1.146000000000000100e-03
1.217999999999999899e-03
1.214999999999999934e-03
1.093000000000000005e-03
1.234999999999999987e-03
1.557999999999999923e-03
1.618000000000000081e-03
1.500999999999999947e-03
1.430999999999999980e-03
1.337000000000000081e-03
1.270999999999999994e-03
1.253999999999999906e-03
1.211000000000000054e-03
1.170000000000000033e-03
1.209999999999999921e-03
1.302999999999999905e-03
1.337999999999999997e-03
1.276000000000000007e-03
1.201999999999999943e-03
1.213000000000000102e-03
1.291000000000000047e-03
1.327000000000000055e-03
1.270000000000000078e-03
1.196999999999999930e-03
1.213000000000000102e-03
1.294000000000000011e-03
1.327000000000000055e-03
1.265000000000000065e-03
1.206000000000000041e-03
1.219999999999999947e-03
1.294000000000000011e-03
1.327999999999999970e-03
1.268999999999999946e-03
1.195000000000000099e-03
1.209999999999999921e-03
1.289999999999999914e-03
1.322999999999999957e-03
1.263000000000000017e-03
1.191000000000000001e-03
1.204999999999999908e-03
1.286999999999999950e-03
1.322999999999999957e-03
1.266999999999999897e-03
1.191999999999999917e-03
1.201999999999999943e-03
1.281000000000000021e-03
1.317000000000000028e-03
1.257000000000000088e-03
1.183999999999999940e-03
1.199999999999999895e-03
1.280000000000000105e-03
1.311000000000000099e-03
1.247999999999999977e-03
1.178999999999999927e-03
1.188000000000000037e-03
1.268000000000000030e-03
1.301000000000000073e-03
1.234000000000000071e-03
1.155999999999999910e-03
1.168999999999999900e-03
1.247000000000000062e-03
1.284999999999999901e-03
1.224999999999999960e-03
1.144999999999999967e-03
1.157000000000000042e-03
1.242000000000000048e-03
1.278999999999999972e-03
1.221000000000000080e-03
1.147999999999999932e-03
1.165000000000000020e-03
1.255999999999999955e-03
1.304999999999999953e-03
1.250999999999999942e-03
1.180999999999999975e-03
1.193999999999999966e-03
1.275000000000000092e-03
1.315999999999999896e-03
1.260000000000000052e-03
1.193999999999999966e-03
1.209999999999999921e-03
1.280000000000000105e-03
1.314999999999999980e-03
1.255999999999999955e-03
1.182000000000000108e-03
1.198999999999999979e-03
1.280000000000000105e-03
1.312999999999999931e-03
1.248999999999999893e-03
1.175999999999999962e-03
1.188999999999999953e-03
1.271999999999999910e-03
1.307999999999999918e-03
1.250999999999999942e-03
1.185000000000000072e-03
1.191999999999999917e-03
1.275000000000000092e-03
1.315999999999999896e-03
1.260000000000000052e-03
1.188999999999999953e-03
1.201999999999999943e-03
1.283999999999999985e-03
1.322000000000000041e-03
1.263000000000000017e-03
1.195000000000000099e-03
1.216000000000000067e-03
1.296000000000000060e-03
1.330000000000000019e-03
1.270000000000000078e-03
1.198999999999999979e-03
1.213000000000000102e-03
1.293000000000000095e-03
1.332000000000000068e-03
1.270999999999999994e-03
1.196999999999999930e-03
1.203999999999999992e-03
1.283999999999999985e-03
1.327000000000000055e-03
1.270000000000000078e-03
1.195000000000000099e-03
1.204999999999999908e-03
1.286999999999999950e-03
1.322999999999999957e-03
1.265000000000000065e-03
1.188999999999999953e-03
1.203999999999999992e-03
1.283000000000000069e-03
1.320999999999999909e-03
1.263999999999999933e-03
1.188000000000000037e-03
1.196999999999999930e-03
1.276999999999999923e-03
1.317000000000000028e-03
1.258000000000000004e-03
1.183999999999999940e-03
1.196000000000000014e-03
1.281999999999999936e-03
1.322999999999999957e-03
1.265000000000000065e-03
1.188000000000000037e-03
1.198000000000000063e-03
1.276999999999999923e-03
1.319000000000000077e-03
1.270000000000000078e-03
1.195000000000000099e-03
1.199999999999999895e-03
1.281999999999999936e-03
1.319999999999999993e-03
1.258999999999999920e-03
1.186999999999999904e-03
1.199999999999999895e-03
1.278000000000000056e-03
1.317999999999999944e-03
1.263000000000000017e-03
1.188999999999999953e-03
1.195000000000000099e-03
1.276999999999999923e-03
1.314999999999999980e-03
1.258999999999999920e-03
1.191000000000000001e-03
1.196000000000000014e-03
1.278000000000000056e-03
1.320999999999999909e-03
1.263999999999999933e-03
1.195000000000000099e-03
1.206000000000000041e-03
1.286000000000000034e-03
1.325999999999999922e-03
1.278000000000000056e-03
1.217999999999999899e-03
1.232000000000000022e-03
1.304999999999999953e-03
1.329000000000000103e-03
1.265999999999999981e-03
1.186999999999999904e-03
1.196999999999999930e-03
1.283000000000000069e-03
1.335000000000000032e-03
1.288999999999999998e-03
1.201000000000000028e-03
1.206000000000000041e-03
1.286999999999999950e-03
1.314999999999999980e-03
1.250000000000000026e-03
1.173999999999999913e-03
1.185000000000000072e-03
1.268000000000000030e-03
1.309999999999999967e-03
1.255999999999999955e-03
1.183000000000000024e-03
1.186999999999999904e-03
1.266999999999999897e-03
1.307999999999999918e-03
1.260000000000000052e-03
1.178000000000000011e-03
1.185999999999999988e-03
1.271999999999999910e-03
1.311000000000000099e-03
1.260000000000000052e-03
1.191000000000000001e-03
1.195000000000000099e-03
1.281000000000000021e-03
1.325999999999999922e-03
1.270999999999999994e-03
1.217999999999999899e-03
1.265000000000000065e-03
1.363000000000000062e-03
1.374999999999999920e-03
1.273999999999999959e-03
1.121999999999999950e-03
1.087000000000000076e-03
1.167000000000000069e-03
1.275000000000000092e-03
1.221999999999999996e-03
1.136999999999999990e-03
1.379000000000000017e-03
1.611000000000000019e-03
1.590000000000000050e-03
1.516999999999999902e-03
1.399999999999999986e-03
1.263000000000000017e-03
1.255000000000000039e-03
1.288000000000000082e-03
1.263000000000000017e-03
1.222999999999999912e-03
1.234000000000000071e-03
1.312999999999999931e-03
1.355000000000000085e-03
1.301000000000000073e-03
1.221999999999999996e-03
1.224999999999999960e-03
1.309999999999999967e-03
1.350999999999999987e-03
1.296000000000000060e-03
1.219999999999999947e-03
1.227000000000000009e-03
1.307999999999999918e-03
1.353999999999999952e-03
1.301999999999999989e-03
1.222999999999999912e-03
1.226000000000000093e-03
1.309999999999999967e-03
1.348000000000000023e-03
1.291000000000000047e-03
1.211999999999999970e-03
1.219000000000000031e-03
1.301000000000000073e-03
1.340999999999999961e-03
1.284999999999999901e-03
1.213000000000000102e-03
1.214999999999999934e-03
1.294000000000000011e-03
1.337999999999999997e-03
1.286999999999999950e-03
1.216999999999999983e-03
1.221000000000000080e-03
1.299000000000000024e-03
1.337000000000000081e-03
1.281000000000000021e-03
1.203000000000000076e-03
1.206000000000000041e-03
1.291000000000000047e-03
1.330999999999999935e-03
1.275000000000000092e-03
1.193000000000000050e-03
1.191000000000000001e-03
1.273000000000000043e-03
1.314999999999999980e-03
1.258000000000000004e-03
1.177000000000000095e-03
1.180000000000000059e-03
1.258999999999999920e-03
1.296999999999999976e-03
1.247000000000000062e-03
1.168999999999999900e-03
1.165999999999999936e-03
1.242999999999999964e-03
1.284999999999999901e-03
1.237000000000000035e-03
1.165999999999999936e-03
1.175000000000000046e-03
1.260000000000000052e-03
1.309000000000000051e-03
1.263000000000000017e-03
1.188999999999999953e-03
1.196999999999999930e-03
1.286000000000000034e-03
1.329000000000000103e-03
1.275000000000000092e-03
1.198999999999999979e-03
1.208000000000000089e-03
1.286999999999999950e-03
1.330000000000000019e-03
1.275000000000000092e-03
1.195000000000000099e-03
1.196999999999999930e-03
1.281000000000000021e-03
1.325999999999999922e-03
1.271999999999999910e-03
1.193999999999999966e-03
1.201000000000000028e-03
1.280000000000000105e-03
1.319000000000000077e-03
1.270000000000000078e-03
1.199999999999999895e-03
1.203000000000000076e-03
1.286000000000000034e-03
1.330000000000000019e-03
1.278999999999999972e-03
1.199999999999999895e-03
1.203999999999999992e-03
1.283999999999999985e-03
1.330999999999999935e-03
1.283999999999999985e-03
1.206999999999999957e-03
1.208000000000000089e-03
1.286000000000000034e-03
1.335000000000000032e-03
1.286999999999999950e-03
1.211999999999999970e-03
1.213000000000000102e-03
1.291999999999999963e-03
1.337000000000000081e-03
1.286999999999999950e-03
1.211999999999999970e-03
1.211000000000000054e-03
1.291999999999999963e-03
1.335000000000000032e-03
1.286999999999999950e-03
1.208000000000000089e-03
1.211999999999999970e-03
1.289999999999999914e-03
1.332999999999999984e-03
1.281000000000000021e-03
1.206000000000000041e-03
1.211999999999999970e-03
1.289999999999999914e-03
1.337999999999999997e-03
1.288000000000000082e-03
1.206999999999999957e-03
1.208000000000000089e-03
1.289999999999999914e-03
1.335000000000000032e-03
1.280000000000000105e-03
1.203999999999999992e-03
1.206999999999999957e-03
1.286999999999999950e-03
1.329000000000000103e-03
1.276999999999999923e-03
1.198999999999999979e-03
1.203999999999999992e-03
1.286999999999999950e-03
1.329000000000000103e-03
1.275000000000000092e-03
1.198999999999999979e-03
1.198999999999999979e-03
1.280000000000000105e-03
1.327999999999999970e-03
1.273999999999999959e-03
1.196999999999999930e-03
1.198000000000000063e-03
1.276000000000000007e-03
1.325999999999999922e-03
1.281000000000000021e-03
1.203999999999999992e-03
1.203999999999999992e-03
1.281999999999999936e-03
1.325000000000000006e-03
1.275000000000000092e-03
1.196999999999999930e-03
1.198000000000000063e-03
1.278000000000000056e-03
1.324000000000000090e-03
1.275000000000000092e-03
1.203000000000000076e-03
1.214999999999999934e-03
1.284999999999999901e-03
1.332999999999999984e-03
1.286000000000000034e-03
1.211999999999999970e-03
1.219000000000000031e-03
1.312999999999999931e-03
1.360000000000000098e-03
1.314999999999999980e-03
1.226000000000000093e-03
1.211000000000000054e-03
1.278999999999999972e-03
1.329000000000000103e-03
1.286000000000000034e-03
1.217999999999999899e-03
1.227999999999999925e-03
1.301000000000000073e-03
1.338999999999999913e-03
1.299000000000000024e-03
1.211000000000000054e-03
1.196999999999999930e-03
1.268999999999999946e-03
1.319999999999999993e-03
1.275000000000000092e-03
1.201999999999999943e-03
1.208000000000000089e-03
1.288000000000000082e-03
1.327000000000000055e-03
1.273000000000000043e-03
1.196000000000000014e-03
1.199999999999999895e-03
1.281000000000000021e-03
1.327000000000000055e-03
1.273999999999999959e-03
1.198999999999999979e-03
1.196999999999999930e-03
1.275000000000000092e-03
1.322999999999999957e-03
1.276999999999999923e-03
1.204999999999999908e-03
1.216000000000000067e-03
1.299999999999999940e-03
1.381999999999999982e-03
1.366999999999999943e-03
1.275000000000000092e-03
1.229999999999999974e-03
1.234000000000000071e-03
1.221999999999999996e-03
1.157999999999999958e-03
1.121999999999999950e-03
1.170999999999999949e-03
1.201000000000000028e-03
1.391000000000000092e-03
1.572000000000000047e-03
1.490000000000000005e-03
1.438000000000000042e-03
1.513000000000000022e-03
1.448999999999999984e-03
1.281999999999999936e-03
1.177000000000000095e-03
1.198999999999999979e-03
1.311000000000000099e-03
1.371000000000000040e-03
1.314999999999999980e-03
1.235999999999999903e-03
1.232999999999999938e-03
1.311000000000000099e-03
1.360000000000000098e-03
1.311000000000000099e-03
1.234999999999999987e-03
1.232000000000000022e-03
1.312000000000000015e-03
1.361000000000000014e-03
1.322999999999999957e-03
1.240000000000000000e-03
1.234000000000000071e-03
1.309999999999999967e-03
1.356999999999999916e-03
1.309000000000000051e-03
1.235999999999999903e-03
1.232000000000000022e-03
1.307999999999999918e-03
1.355000000000000085e-03
1.306000000000000086e-03
1.227000000000000009e-03
1.222999999999999912e-03
1.301999999999999989e-03
1.351999999999999903e-03
1.301000000000000073e-03
1.221000000000000080e-03
1.216000000000000067e-03
1.294999999999999927e-03
1.343000000000000010e-03
1.296000000000000060e-03
1.216999999999999983e-03
1.214000000000000018e-03
1.291999999999999963e-03
1.337999999999999997e-03
1.288999999999999998e-03
1.214000000000000018e-03
1.204999999999999908e-03
1.286000000000000034e-03
1.335000000000000032e-03
1.281000000000000021e-03
1.201000000000000028e-03
1.191999999999999917e-03
1.265999999999999981e-03
1.312000000000000015e-03
1.260999999999999968e-03
1.178000000000000011e-03
1.170000000000000033e-03
1.244000000000000097e-03
1.294000000000000011e-03
1.250999999999999942e-03
1.173999999999999913e-03
1.170000000000000033e-03
1.250999999999999942e-03
1.309999999999999967e-03
1.271999999999999910e-03
1.193999999999999966e-03
1.193999999999999966e-03
1.283000000000000069e-03
1.337000000000000081e-03
1.291000000000000047e-03
1.216000000000000067e-03
1.206999999999999957e-03
1.283999999999999985e-03
1.332000000000000068e-03
1.291000000000000047e-03
1.211999999999999970e-03
1.204999999999999908e-03
1.281000000000000021e-03
1.330999999999999935e-03
1.284999999999999901e-03
1.203999999999999992e-03
1.198000000000000063e-03
1.278999999999999972e-03
1.329000000000000103e-03
1.286000000000000034e-03
1.206999999999999957e-03
1.201999999999999943e-03
1.276000000000000007e-03
1.324000000000000090e-03
1.281000000000000021e-03
1.204999999999999908e-03
1.206999999999999957e-03
1.286000000000000034e-03
1.335000000000000032e-03
1.289999999999999914e-03
1.214999999999999934e-03
1.208000000000000089e-03
1.281999999999999936e-03
1.333999999999999899e-03
1.294999999999999927e-03
1.219000000000000031e-03
1.209999999999999921e-03
1.289999999999999914e-03
1.338999999999999913e-03
1.291000000000000047e-03
1.209999999999999921e-03
1.203999999999999992e-03
1.281999999999999936e-03
1.338999999999999913e-03
1.294999999999999927e-03
1.216999999999999983e-03
1.211999999999999970e-03
1.288999999999999998e-03
1.333999999999999899e-03
1.286999999999999950e-03
1.211999999999999970e-03
1.206999999999999957e-03
1.286000000000000034e-03
1.333999999999999899e-03
1.284999999999999901e-03
1.204999999999999908e-03
1.198000000000000063e-03
1.273000000000000043e-03
1.324000000000000090e-03
1.280000000000000105e-03
1.201999999999999943e-03
1.193999999999999966e-03
1.271999999999999910e-03
1.322000000000000041e-03
1.275000000000000092e-03
1.201999999999999943e-03
1.191999999999999917e-03
1.266999999999999897e-03
1.317000000000000028e-03
1.271999999999999910e-03
1.198000000000000063e-03
1.193000000000000050e-03
1.270999999999999994e-03
1.317999999999999944e-03
1.271999999999999910e-03
1.193000000000000050e-03
1.185999999999999988e-03
1.266999999999999897e-03
1.317999999999999944e-03
1.275000000000000092e-03
1.196999999999999930e-03
1.195000000000000099e-03
1.271999999999999910e-03
1.322999999999999957e-03
1.281999999999999936e-03
1.201000000000000028e-03
1.185999999999999988e-03
1.262000000000000101e-03
1.315999999999999896e-03
1.271999999999999910e-03
1.191999999999999917e-03
1.188999999999999953e-03
1.268000000000000030e-03
1.314999999999999980e-03
1.270999999999999994e-03
1.201000000000000028e-03
1.198999999999999979e-03
1.278000000000000056e-03
1.330000000000000019e-03
1.286000000000000034e-03
1.214999999999999934e-03
1.211999999999999970e-03
1.283999999999999985e-03
1.322999999999999957e-03
1.273000000000000043e-03
1.188999999999999953e-03
1.180999999999999975e-03
1.266999999999999897e-03
1.330999999999999935e-03
1.291999999999999963e-03
1.204999999999999908e-03
1.188999999999999953e-03
1.266999999999999897e-03
1.312000000000000015e-03
1.263000000000000017e-03
1.180999999999999975e-03
1.177000000000000095e-03
1.252000000000000075e-03
1.312000000000000015e-03
1.276999999999999923e-03
