3.665999999999999988e-03
3.676000000000000014e-03
3.716999999999999818e-03
3.719000000000000083e-03
3.671999999999999917e-03
3.661999999999999891e-03
3.689000000000000005e-03
3.720999999999999915e-03
3.693999999999999801e-03
3.668999999999999952e-03
3.664000000000000156e-03
3.694999999999999934e-03
3.723000000000000181e-03
3.707999999999999925e-03
3.680000000000000111e-03
3.683000000000000076e-03
3.697000000000000199e-03
3.726999999999999844e-03
3.725000000000000012e-03
3.709000000000000057e-03
3.697000000000000199e-03
3.691999999999999969e-03
3.733999999999999906e-03
3.732000000000000074e-03
3.710000000000000190e-03
3.686000000000000040e-03
3.707999999999999925e-03
3.746999999999999897e-03
3.766999999999999949e-03
3.733000000000000207e-03
3.720000000000000216e-03
3.742000000000000100e-03
3.766999999999999949e-03
3.763999999999999985e-03
3.748000000000000029e-03
3.756999999999999923e-03
3.762999999999999852e-03
3.772999999999999878e-03
3.788000000000000134e-03
3.782999999999999904e-03
3.791000000000000099e-03
3.808000000000000187e-03
3.837000000000000133e-03
3.843000000000000062e-03
3.828999999999999938e-03
3.837000000000000133e-03
3.856000000000000053e-03
3.884999999999999998e-03
3.876000000000000105e-03
3.864999999999999946e-03
3.867999999999999911e-03
3.893000000000000193e-03
3.917999999999999608e-03
3.902999999999999785e-03
3.886000000000000131e-03
3.905000000000000051e-03
3.937999999999999660e-03
3.943000000000000324e-03
3.930999999999999599e-03
3.900999999999999954e-03
3.886999999999999830e-03
3.882000000000000034e-03
3.886000000000000131e-03
3.847999999999999858e-03
3.815999999999999948e-03
3.795999999999999895e-03
3.799999999999999992e-03
3.798000000000000161e-03
3.765000000000000117e-03
3.733000000000000207e-03
3.716000000000000119e-03
3.719000000000000083e-03
3.733000000000000207e-03
3.720999999999999915e-03
3.680000000000000111e-03
3.652999999999999997e-03
3.657000000000000094e-03
3.671999999999999917e-03
3.676000000000000014e-03
3.677000000000000147e-03
3.663000000000000023e-03
3.667999999999999820e-03
3.687000000000000173e-03
3.680999999999999810e-03
3.667000000000000121e-03
3.670999999999999784e-03
3.680000000000000111e-03
3.689000000000000005e-03
3.674999999999999881e-03
3.658999999999999926e-03
3.651000000000000165e-03
3.660000000000000059e-03
3.684000000000000209e-03
3.678999999999999979e-03
3.660000000000000059e-03
3.651999999999999864e-03
3.670000000000000085e-03
3.665999999999999988e-03
3.654999999999999829e-03
3.658999999999999926e-03
3.651000000000000165e-03
3.684000000000000209e-03
3.710999999999999889e-03
3.687999999999999872e-03
3.673000000000000050e-03
3.651000000000000165e-03
3.674000000000000182e-03
3.704999999999999960e-03
3.677000000000000147e-03
3.657000000000000094e-03
3.651000000000000165e-03
3.668999999999999952e-03
3.676000000000000014e-03
3.664000000000000156e-03
3.651999999999999864e-03
3.652999999999999997e-03
3.667000000000000121e-03
3.691999999999999969e-03
3.678999999999999979e-03
3.654999999999999829e-03
3.654000000000000130e-03
3.661999999999999891e-03
3.674000000000000182e-03
3.664000000000000156e-03
3.640000000000000006e-03
3.637000000000000042e-03
3.654000000000000130e-03
3.663000000000000023e-03
3.648999999999999900e-03
3.632999999999999945e-03
3.621000000000000087e-03
3.644000000000000104e-03
3.664999999999999855e-03
3.661000000000000192e-03
3.629999999999999980e-03
3.625000000000000184e-03
3.644000000000000104e-03
3.660000000000000059e-03
3.645999999999999935e-03
3.619999999999999954e-03
3.632999999999999945e-03
3.652999999999999997e-03
3.664999999999999855e-03
3.657000000000000094e-03
3.635000000000000210e-03
3.631999999999999812e-03
3.641000000000000139e-03
3.651000000000000165e-03
3.634000000000000077e-03
3.612000000000000193e-03
3.605000000000000131e-03
3.632999999999999945e-03
3.651000000000000165e-03
3.650000000000000033e-03
3.628000000000000148e-03
3.618999999999999821e-03
3.640000000000000006e-03
3.644999999999999803e-03
3.635000000000000210e-03
3.602000000000000167e-03
3.580999999999999982e-03
3.609999999999999928e-03
3.661000000000000192e-03
3.670000000000000085e-03
3.644000000000000104e-03
3.622999999999999918e-03
3.635999999999999909e-03
3.654999999999999829e-03
3.632999999999999945e-03
3.611000000000000060e-03
3.621000000000000087e-03
3.632999999999999945e-03
3.635000000000000210e-03
3.625999999999999883e-03
3.602999999999999866e-03
3.605000000000000131e-03
3.642999999999999971e-03
3.638000000000000175e-03
3.625000000000000184e-03
3.619999999999999954e-03
3.628000000000000148e-03
3.644999999999999803e-03
3.632999999999999945e-03
3.625000000000000184e-03
3.627000000000000016e-03
3.624000000000000051e-03
3.624000000000000051e-03
3.651000000000000165e-03
3.638999999999999874e-03
3.612999999999999892e-03
3.592999999999999840e-03
3.599999999999999901e-03
3.621999999999999786e-03
3.596999999999999937e-03
3.599000000000000202e-03
3.615999999999999857e-03
3.655999999999999962e-03
3.668999999999999952e-03
3.592000000000000141e-03
3.546999999999999806e-03
3.579999999999999849e-03
3.657000000000000094e-03
3.707999999999999925e-03
3.710000000000000190e-03
3.686000000000000040e-03
3.678999999999999979e-03
3.687000000000000173e-03
3.703999999999999827e-03
3.717999999999999951e-03
3.703999999999999827e-03
3.671999999999999917e-03
3.694999999999999934e-03
3.700999999999999863e-03
3.671999999999999917e-03
3.628999999999999847e-03
3.603999999999999999e-03
3.615999999999999857e-03
3.629999999999999980e-03
3.605999999999999830e-03
3.578000000000000017e-03
3.602000000000000167e-03
3.631999999999999812e-03
3.650000000000000033e-03
3.635999999999999909e-03
3.592999999999999840e-03
3.586999999999999911e-03
3.599000000000000202e-03
3.605000000000000131e-03
3.595000000000000105e-03
3.563000000000000195e-03
3.576000000000000185e-03
3.608999999999999795e-03
3.625999999999999883e-03
3.608999999999999795e-03
3.586000000000000212e-03
3.596999999999999937e-03
3.647000000000000068e-03
3.693999999999999801e-03
3.759999999999999887e-03
3.880000000000000202e-03
3.964999999999999775e-03
4.027000000000000197e-03
4.017999999999999870e-03
3.910000000000000281e-03
3.779999999999999940e-03
3.719000000000000083e-03
3.608999999999999795e-03
3.490000000000000047e-03
3.474000000000000091e-03
3.523999999999999789e-03
3.563000000000000195e-03
3.612000000000000193e-03
3.635000000000000210e-03
3.644000000000000104e-03
3.638000000000000175e-03
3.625000000000000184e-03
3.647000000000000068e-03
3.661000000000000192e-03
3.641999999999999838e-03
3.624000000000000051e-03
3.625000000000000184e-03
3.651000000000000165e-03
3.667999999999999820e-03
3.648999999999999900e-03
3.651000000000000165e-03
3.651999999999999864e-03
3.676000000000000014e-03
3.686000000000000040e-03
3.670000000000000085e-03
3.640000000000000006e-03
3.640000000000000006e-03
3.664000000000000156e-03
3.693999999999999801e-03
3.677999999999999846e-03
3.651999999999999864e-03
3.650000000000000033e-03
3.670999999999999784e-03
3.687000000000000173e-03
3.674000000000000182e-03
3.641000000000000139e-03
3.648000000000000201e-03
3.681999999999999943e-03
3.693999999999999801e-03
3.703000000000000128e-03
3.684999999999999908e-03
3.687999999999999872e-03
3.713999999999999854e-03
3.717999999999999951e-03
3.716000000000000119e-03
3.712000000000000022e-03
3.723000000000000181e-03
3.742000000000000100e-03
3.758000000000000056e-03
3.732000000000000074e-03
3.701999999999999996e-03
3.696000000000000067e-03
3.687000000000000173e-03
3.714999999999999986e-03
3.748000000000000029e-03
3.763999999999999985e-03
3.798999999999999860e-03
3.824000000000000142e-03
3.812999999999999983e-03
3.775000000000000144e-03
3.769000000000000215e-03
3.843000000000000062e-03
3.886999999999999830e-03
3.895000000000000025e-03
3.877999999999999937e-03
3.860000000000000150e-03
3.856000000000000053e-03
3.897999999999999989e-03
3.911999999999999679e-03
3.902999999999999785e-03
3.883000000000000167e-03
3.886000000000000131e-03
3.902999999999999785e-03
3.921000000000000006e-03
3.908000000000000015e-03
3.877999999999999937e-03
3.867000000000000211e-03
3.877999999999999937e-03
3.874999999999999972e-03
3.866000000000000079e-03
3.844999999999999894e-03
3.795999999999999895e-03
3.776999999999999975e-03
3.769000000000000215e-03
3.736000000000000171e-03
3.709000000000000057e-03
3.697000000000000199e-03
3.707999999999999925e-03
3.716000000000000119e-03
3.694999999999999934e-03
3.661000000000000192e-03
3.657999999999999793e-03
3.655999999999999962e-03
3.664000000000000156e-03
3.644999999999999803e-03
3.616999999999999989e-03
3.631999999999999812e-03
3.651000000000000165e-03
3.664000000000000156e-03
3.661000000000000192e-03
3.650000000000000033e-03
3.621000000000000087e-03
3.647000000000000068e-03
3.645999999999999935e-03
3.634000000000000077e-03
3.615000000000000158e-03
3.628999999999999847e-03
3.644999999999999803e-03
3.680000000000000111e-03
3.655999999999999962e-03
3.614000000000000025e-03
3.635000000000000210e-03
3.664000000000000156e-03
3.686000000000000040e-03
3.655999999999999962e-03
3.609999999999999928e-03
3.631999999999999812e-03
3.657999999999999793e-03
3.638000000000000175e-03
3.629999999999999980e-03
3.629999999999999980e-03
3.638000000000000175e-03
3.657999999999999793e-03
3.665999999999999988e-03
3.644000000000000104e-03
3.619999999999999954e-03
3.601000000000000034e-03
3.634000000000000077e-03
3.642999999999999971e-03
3.614000000000000025e-03
3.615999999999999857e-03
3.647000000000000068e-03
3.660000000000000059e-03
3.655999999999999962e-03
3.621999999999999786e-03
3.619999999999999954e-03
3.622999999999999918e-03
3.637000000000000042e-03
3.651999999999999864e-03
3.648000000000000201e-03
3.634000000000000077e-03
3.621999999999999786e-03
3.631999999999999812e-03
3.645999999999999935e-03
3.625999999999999883e-03
3.602000000000000167e-03
3.582000000000000114e-03
3.615999999999999857e-03
3.664000000000000156e-03
3.651000000000000165e-03
3.625000000000000184e-03
3.622999999999999918e-03
3.648999999999999900e-03
3.644000000000000104e-03
3.618999999999999821e-03
3.602000000000000167e-03
3.606999999999999963e-03
3.614000000000000025e-03
3.628000000000000148e-03
3.628999999999999847e-03
3.608000000000000096e-03
3.601000000000000034e-03
3.634000000000000077e-03
3.645999999999999935e-03
3.628000000000000148e-03
3.601000000000000034e-03
3.592000000000000141e-03
3.627000000000000016e-03
3.645999999999999935e-03
3.632999999999999945e-03
3.596999999999999937e-03
3.602999999999999866e-03
3.635999999999999909e-03
3.654000000000000130e-03
3.638999999999999874e-03
3.612999999999999892e-03
3.612000000000000193e-03
3.648999999999999900e-03
3.635000000000000210e-03
3.595000000000000105e-03
3.588000000000000043e-03
3.602000000000000167e-03
3.618000000000000122e-03
3.622999999999999918e-03
3.579999999999999849e-03
3.573999999999999920e-03
3.611000000000000060e-03
3.645999999999999935e-03
3.641000000000000139e-03
3.631999999999999812e-03
3.602999999999999866e-03
3.608999999999999795e-03
3.624000000000000051e-03
3.632999999999999945e-03
3.621999999999999786e-03
3.606999999999999963e-03
3.619999999999999954e-03
3.625000000000000184e-03
3.640000000000000006e-03
3.621000000000000087e-03
3.596999999999999937e-03
3.589000000000000176e-03
3.608000000000000096e-03
3.614000000000000025e-03
3.608000000000000096e-03
3.611000000000000060e-03
3.614000000000000025e-03
3.629999999999999980e-03
3.621999999999999786e-03
3.596999999999999937e-03
3.605999999999999830e-03
3.602000000000000167e-03
3.612000000000000193e-03
3.638999999999999874e-03
3.605000000000000131e-03
3.595000000000000105e-03
3.602999999999999866e-03
3.612000000000000193e-03
3.635000000000000210e-03
3.622999999999999918e-03
3.575000000000000053e-03
3.559000000000000098e-03
3.602999999999999866e-03
3.641000000000000139e-03
3.637000000000000042e-03
3.608000000000000096e-03
3.619999999999999954e-03
3.670999999999999784e-03
3.661000000000000192e-03
3.634000000000000077e-03
3.603999999999999999e-03
3.612000000000000193e-03
3.632999999999999945e-03
3.635999999999999909e-03
3.635000000000000210e-03
3.654000000000000130e-03
3.686000000000000040e-03
3.683000000000000076e-03
3.683000000000000076e-03
3.663000000000000023e-03
3.625000000000000184e-03
3.627000000000000016e-03
3.621999999999999786e-03
3.638999999999999874e-03
3.609999999999999928e-03
3.578000000000000017e-03
3.583999999999999946e-03
3.595000000000000105e-03
3.602000000000000167e-03
3.586999999999999911e-03
3.573999999999999920e-03
3.580999999999999982e-03
3.592000000000000141e-03
3.592999999999999840e-03
3.578000000000000017e-03
3.553000000000000169e-03
3.546000000000000107e-03
3.595999999999999804e-03
3.616999999999999989e-03
3.583999999999999946e-03
3.543999999999999841e-03
3.569999999999999823e-03
3.605999999999999830e-03
3.605999999999999830e-03
3.589999999999999875e-03
3.611000000000000060e-03
3.648000000000000201e-03
3.739000000000000136e-03
3.893000000000000193e-03
3.969999999999999571e-03
3.997999999999999818e-03
3.983000000000000429e-03
3.902999999999999785e-03
3.772999999999999878e-03
3.690000000000000138e-03
3.546999999999999806e-03
3.396999999999999846e-03
3.405000000000000041e-03
3.493000000000000011e-03
3.530999999999999851e-03
3.537999999999999912e-03
3.556000000000000133e-03
3.624000000000000051e-03
3.663000000000000023e-03
3.635000000000000210e-03
3.608000000000000096e-03
3.608000000000000096e-03
3.608999999999999795e-03
3.611000000000000060e-03
3.606999999999999963e-03
3.602999999999999866e-03
3.616999999999999989e-03
3.631999999999999812e-03
3.618000000000000122e-03
3.606999999999999963e-03
3.622999999999999918e-03
3.618999999999999821e-03
3.631000000000000113e-03
3.629999999999999980e-03
3.576999999999999885e-03
3.596999999999999937e-03
3.667999999999999820e-03
3.668999999999999952e-03
3.664000000000000156e-03
3.647000000000000068e-03
3.622999999999999918e-03
3.629999999999999980e-03
3.641999999999999838e-03
3.657999999999999793e-03
3.651000000000000165e-03
3.635999999999999909e-03
3.631000000000000113e-03
3.654000000000000130e-03
3.667999999999999820e-03
3.650000000000000033e-03
3.635000000000000210e-03
3.658999999999999926e-03
3.684000000000000209e-03
3.677000000000000147e-03
3.690000000000000138e-03
3.694999999999999934e-03
3.687999999999999872e-03
3.713000000000000154e-03
3.706999999999999792e-03
3.700999999999999863e-03
3.697000000000000199e-03
3.733000000000000207e-03
3.765999999999999816e-03
3.740999999999999968e-03
3.735000000000000039e-03
3.748000000000000029e-03
3.765000000000000117e-03
3.784000000000000037e-03
3.804999999999999789e-03
3.798999999999999860e-03
3.776999999999999975e-03
3.807000000000000054e-03
3.857999999999999884e-03
3.867999999999999911e-03
3.850999999999999823e-03
3.840999999999999796e-03
3.863999999999999813e-03
3.884999999999999998e-03
3.880999999999999901e-03
3.850999999999999823e-03
3.840999999999999796e-03
3.857000000000000185e-03
3.876000000000000105e-03
3.872000000000000008e-03
3.850000000000000124e-03
3.814999999999999815e-03
3.840999999999999796e-03
3.857000000000000185e-03
3.823000000000000009e-03
3.781000000000000073e-03
3.758000000000000056e-03
3.746999999999999897e-03
3.742999999999999799e-03
3.726000000000000145e-03
3.664999999999999855e-03
3.637000000000000042e-03
3.628000000000000148e-03
3.644999999999999803e-03
3.638000000000000175e-03
3.606999999999999963e-03
3.601000000000000034e-03
3.605000000000000131e-03
3.615999999999999857e-03
3.608000000000000096e-03
3.593999999999999972e-03
3.586000000000000212e-03
3.599999999999999901e-03
3.605000000000000131e-03
3.603999999999999999e-03
3.559000000000000098e-03
3.549000000000000071e-03
3.585000000000000079e-03
3.603999999999999999e-03
3.615999999999999857e-03
3.612000000000000193e-03
3.573999999999999920e-03
3.562000000000000062e-03
3.596999999999999937e-03
3.611000000000000060e-03
3.608999999999999795e-03
3.602000000000000167e-03
3.595000000000000105e-03
3.612999999999999892e-03
3.602999999999999866e-03
3.599999999999999901e-03
3.595000000000000105e-03
3.579999999999999849e-03
3.589000000000000176e-03
3.583999999999999946e-03
3.592999999999999840e-03
3.602000000000000167e-03
3.615000000000000158e-03
3.628000000000000148e-03
3.627000000000000016e-03
3.593999999999999972e-03
3.553999999999999868e-03
3.583999999999999946e-03
3.608999999999999795e-03
3.598000000000000070e-03
3.582999999999999814e-03
3.555000000000000000e-03
3.576999999999999885e-03
3.586999999999999911e-03
3.588000000000000043e-03
3.582000000000000114e-03
3.556000000000000133e-03
3.563000000000000195e-03
3.605000000000000131e-03
3.608999999999999795e-03
3.586999999999999911e-03
3.559999999999999797e-03
3.589999999999999875e-03
3.621999999999999786e-03
3.602000000000000167e-03
3.579000000000000150e-03
3.556999999999999832e-03
3.576999999999999885e-03
3.592999999999999840e-03
3.586000000000000212e-03
3.570999999999999956e-03
3.559999999999999797e-03
3.570999999999999956e-03
3.589000000000000176e-03
3.605000000000000131e-03
3.591000000000000008e-03
3.556000000000000133e-03
3.511999999999999931e-03
3.506000000000000002e-03
3.556999999999999832e-03
3.583999999999999946e-03
3.547999999999999939e-03
3.595000000000000105e-03
3.642999999999999971e-03
3.628000000000000148e-03
3.608999999999999795e-03
3.595000000000000105e-03
3.608999999999999795e-03
3.635999999999999909e-03
3.603999999999999999e-03
3.573999999999999920e-03
3.559999999999999797e-03
3.582000000000000114e-03
3.599999999999999901e-03
3.608000000000000096e-03
3.605999999999999830e-03
3.586000000000000212e-03
3.588000000000000043e-03
3.582000000000000114e-03
3.586999999999999911e-03
3.589000000000000176e-03
3.569000000000000124e-03
3.569000000000000124e-03
3.592999999999999840e-03
3.612999999999999892e-03
3.596999999999999937e-03
3.556000000000000133e-03
3.549000000000000071e-03
3.591000000000000008e-03
3.599999999999999901e-03
3.580999999999999982e-03
3.582999999999999814e-03
3.588000000000000043e-03
3.608000000000000096e-03
3.602000000000000167e-03
3.556000000000000133e-03
3.572000000000000088e-03
3.619999999999999954e-03
3.622999999999999918e-03
3.612000000000000193e-03
3.595000000000000105e-03
3.559000000000000098e-03
3.560999999999999929e-03
3.596999999999999937e-03
3.589000000000000176e-03
3.586999999999999911e-03
3.576999999999999885e-03
3.591000000000000008e-03
3.599000000000000202e-03
3.625000000000000184e-03
3.619999999999999954e-03
3.602999999999999866e-03
3.591000000000000008e-03
3.602999999999999866e-03
3.598000000000000070e-03
3.580999999999999982e-03
3.621000000000000087e-03
3.652999999999999997e-03
3.658999999999999926e-03
3.655999999999999962e-03
3.632999999999999945e-03
3.631000000000000113e-03
3.629999999999999980e-03
3.657000000000000094e-03
3.657999999999999793e-03
3.582000000000000114e-03
3.565000000000000027e-03
3.606999999999999963e-03
3.619999999999999954e-03
3.592000000000000141e-03
3.572000000000000088e-03
3.565000000000000027e-03
3.556999999999999832e-03
3.563999999999999894e-03
3.580999999999999982e-03
3.586999999999999911e-03
3.586999999999999911e-03
3.586999999999999911e-03
3.592000000000000141e-03
3.592999999999999840e-03
3.579000000000000150e-03
3.569000000000000124e-03
3.563999999999999894e-03
3.593999999999999972e-03
3.608999999999999795e-03
3.583999999999999946e-03
3.562000000000000062e-03
3.575000000000000053e-03
3.635999999999999909e-03
3.667999999999999820e-03
3.651000000000000165e-03
3.738000000000000003e-03
3.877999999999999937e-03
3.974000000000000102e-03
3.996000000000000420e-03
3.872000000000000008e-03
3.681999999999999943e-03
3.634000000000000077e-03
3.533999999999999815e-03
3.410999999999999970e-03
3.311000000000000141e-03
3.371999999999999997e-03
3.500000000000000073e-03
3.553000000000000169e-03
3.572000000000000088e-03
3.602999999999999866e-03
3.612999999999999892e-03
3.612999999999999892e-03
3.625000000000000184e-03
3.648999999999999900e-03
3.650000000000000033e-03
3.637000000000000042e-03
3.642999999999999971e-03
3.657999999999999793e-03
3.671999999999999917e-03
3.648999999999999900e-03
3.621999999999999786e-03
3.621000000000000087e-03
3.618000000000000122e-03
3.645999999999999935e-03
3.650000000000000033e-03
3.634000000000000077e-03
3.671999999999999917e-03
3.674000000000000182e-03
3.663000000000000023e-03
3.645999999999999935e-03
3.648000000000000201e-03
3.651999999999999864e-03
3.654000000000000130e-03
3.657999999999999793e-03
3.673000000000000050e-03
3.694999999999999934e-03
3.725000000000000012e-03
3.720999999999999915e-03
3.700000000000000164e-03
3.681999999999999943e-03
3.676000000000000014e-03
3.700999999999999863e-03
3.740999999999999968e-03
3.722000000000000048e-03
3.703000000000000128e-03
3.674999999999999881e-03
3.683000000000000076e-03
3.732000000000000074e-03
3.735000000000000039e-03
3.716999999999999818e-03
3.727999999999999977e-03
3.752000000000000127e-03
3.762999999999999852e-03
3.750999999999999994e-03
3.745000000000000065e-03
3.762999999999999852e-03
3.808999999999999886e-03
3.821999999999999877e-03
3.785999999999999869e-03
3.801000000000000125e-03
3.814999999999999815e-03
3.811999999999999850e-03
3.827000000000000107e-03
3.831999999999999903e-03
3.814999999999999815e-03
3.821000000000000178e-03
3.847000000000000159e-03
3.850999999999999823e-03
3.856000000000000053e-03
3.848999999999999991e-03
3.833000000000000036e-03
3.854999999999999920e-03
3.902000000000000086e-03
3.892000000000000060e-03
3.873000000000000140e-03
3.848999999999999991e-03
3.869000000000000043e-03
3.880000000000000202e-03
3.854999999999999920e-03
3.830000000000000071e-03
3.814000000000000116e-03
3.814999999999999815e-03
3.788000000000000134e-03
3.781000000000000073e-03
3.749000000000000162e-03
3.710000000000000190e-03
3.704999999999999960e-03
3.712000000000000022e-03
3.699000000000000031e-03
3.691999999999999969e-03
3.687000000000000173e-03
3.696000000000000067e-03
3.686000000000000040e-03
3.673000000000000050e-03
3.640000000000000006e-03
3.625999999999999883e-03
3.635000000000000210e-03
3.673000000000000050e-03
3.681999999999999943e-03
3.654999999999999829e-03
3.638999999999999874e-03
3.638000000000000175e-03
3.654999999999999829e-03
3.644999999999999803e-03
3.632999999999999945e-03
3.641000000000000139e-03
3.654000000000000130e-03
3.677000000000000147e-03
3.652999999999999997e-03
3.634000000000000077e-03
3.627000000000000016e-03
3.661000000000000192e-03
3.690000000000000138e-03
3.687999999999999872e-03
3.665999999999999988e-03
3.658999999999999926e-03
3.655999999999999962e-03
3.651000000000000165e-03
3.651999999999999864e-03
3.667999999999999820e-03
3.657999999999999793e-03
3.684000000000000209e-03
3.694999999999999934e-03
3.660000000000000059e-03
3.645999999999999935e-03
3.642999999999999971e-03
3.660000000000000059e-03
3.671999999999999917e-03
3.650000000000000033e-03
3.644999999999999803e-03
3.647000000000000068e-03
3.667999999999999820e-03
3.687000000000000173e-03
3.674000000000000182e-03
3.650000000000000033e-03
3.638000000000000175e-03
3.637000000000000042e-03
3.651999999999999864e-03
3.673000000000000050e-03
3.664000000000000156e-03
3.648999999999999900e-03
3.664000000000000156e-03
3.642999999999999971e-03
3.651000000000000165e-03
3.645999999999999935e-03
3.641999999999999838e-03
3.644000000000000104e-03
3.677000000000000147e-03
3.674999999999999881e-03
3.650000000000000033e-03
3.652999999999999997e-03
3.657999999999999793e-03
3.658999999999999926e-03
3.665999999999999988e-03
3.631999999999999812e-03
3.615999999999999857e-03
3.663000000000000023e-03
3.706000000000000093e-03
3.657999999999999793e-03
3.629999999999999980e-03
3.635000000000000210e-03
3.648999999999999900e-03
3.660000000000000059e-03
3.651000000000000165e-03
3.638000000000000175e-03
3.647000000000000068e-03
3.661999999999999891e-03
3.677999999999999846e-03
3.668999999999999952e-03
3.616999999999999989e-03
3.638999999999999874e-03
3.677999999999999846e-03
3.668999999999999952e-03
3.665999999999999988e-03
3.667999999999999820e-03
3.664999999999999855e-03
3.658999999999999926e-03
3.693000000000000102e-03
3.663000000000000023e-03
3.631999999999999812e-03
3.621000000000000087e-03
3.651000000000000165e-03
3.660000000000000059e-03
3.660000000000000059e-03
3.670999999999999784e-03
3.687999999999999872e-03
3.693000000000000102e-03
3.701999999999999996e-03
3.703999999999999827e-03
3.687999999999999872e-03
3.696000000000000067e-03
3.691999999999999969e-03
3.710999999999999889e-03
3.677000000000000147e-03
3.655999999999999962e-03
3.693999999999999801e-03
3.730999999999999941e-03
3.727999999999999977e-03
3.727999999999999977e-03
3.723000000000000181e-03
3.701999999999999996e-03
3.700999999999999863e-03
3.703999999999999827e-03
3.696000000000000067e-03
3.676000000000000014e-03
3.654999999999999829e-03
3.668999999999999952e-03
3.690999999999999837e-03
3.661999999999999891e-03
3.628000000000000148e-03
3.644999999999999803e-03
3.642999999999999971e-03
3.657000000000000094e-03
3.657999999999999793e-03
3.634000000000000077e-03
3.608000000000000096e-03
3.648999999999999900e-03
3.670000000000000085e-03
3.670000000000000085e-03
3.658999999999999926e-03
3.651999999999999864e-03
3.664000000000000156e-03
3.677000000000000147e-03
3.654000000000000130e-03
3.631999999999999812e-03
3.665999999999999988e-03
3.713000000000000154e-03
3.736999999999999870e-03
3.772000000000000179e-03
3.860000000000000150e-03
3.942000000000000191e-03
3.998999999999999951e-03
3.969999999999999571e-03
3.815999999999999948e-03
3.706999999999999792e-03
3.644999999999999803e-03
3.578000000000000017e-03
3.480000000000000020e-03
3.455000000000000172e-03
3.534999999999999948e-03
3.602000000000000167e-03
3.638999999999999874e-03
3.677999999999999846e-03
3.697000000000000199e-03
3.671999999999999917e-03
3.686000000000000040e-03
3.712000000000000022e-03
3.707999999999999925e-03
3.674999999999999881e-03
3.681999999999999943e-03
3.704999999999999960e-03
3.714999999999999986e-03
3.717999999999999951e-03
3.710999999999999889e-03
3.689000000000000005e-03
3.673000000000000050e-03
3.723000000000000181e-03
3.730999999999999941e-03
3.706000000000000093e-03
3.699000000000000031e-03
3.704999999999999960e-03
3.725000000000000012e-03
3.740999999999999968e-03
3.729000000000000110e-03
3.723999999999999880e-03
3.713000000000000154e-03
3.713999999999999854e-03
3.720000000000000216e-03
3.716999999999999818e-03
3.729999999999999809e-03
3.742999999999999799e-03
3.746999999999999897e-03
3.756999999999999923e-03
3.752999999999999826e-03
3.733000000000000207e-03
3.720999999999999915e-03
3.759999999999999887e-03
3.776999999999999975e-03
3.746000000000000198e-03
3.726000000000000145e-03
3.735000000000000039e-03
3.799999999999999992e-03
3.798999999999999860e-03
3.762000000000000153e-03
3.763999999999999985e-03
3.801999999999999824e-03
3.825999999999999974e-03
3.825999999999999974e-03
3.814000000000000116e-03
3.797000000000000028e-03
3.814999999999999815e-03
3.844999999999999894e-03
3.873999999999999840e-03
3.863000000000000114e-03
3.836000000000000000e-03
3.850999999999999823e-03
3.867000000000000211e-03
3.887999999999999963e-03
3.886999999999999830e-03
3.893000000000000193e-03
3.911000000000000414e-03
3.908000000000000015e-03
3.921000000000000006e-03
3.925999999999999802e-03
3.916000000000000210e-03
3.912999999999999812e-03
3.935000000000000130e-03
3.942000000000000191e-03
3.925999999999999802e-03
3.896999999999999856e-03
3.899000000000000122e-03
3.913999999999999944e-03
3.924999999999999670e-03
3.873000000000000140e-03
3.846000000000000026e-03
3.827999999999999806e-03
3.821999999999999877e-03
3.831000000000000204e-03
3.791999999999999798e-03
3.739999999999999835e-03
3.742999999999999799e-03
3.756999999999999923e-03
3.755000000000000091e-03
3.729999999999999809e-03
3.699000000000000031e-03
3.694999999999999934e-03
3.726000000000000145e-03
3.739000000000000136e-03
3.697000000000000199e-03
3.690000000000000138e-03
3.717999999999999951e-03
3.717999999999999951e-03
3.716999999999999818e-03
3.706999999999999792e-03
3.683000000000000076e-03
3.684999999999999908e-03
3.706999999999999792e-03
3.713000000000000154e-03
3.674999999999999881e-03
3.676000000000000014e-03
3.678999999999999979e-03
3.709000000000000057e-03
3.726999999999999844e-03
3.704999999999999960e-03
3.684000000000000209e-03
3.668999999999999952e-03
3.687000000000000173e-03
3.726999999999999844e-03
3.733000000000000207e-03
3.696000000000000067e-03
3.684000000000000209e-03
3.716000000000000119e-03
3.726999999999999844e-03
3.719000000000000083e-03
3.690999999999999837e-03
3.700000000000000164e-03
3.726999999999999844e-03
3.723999999999999880e-03
3.690000000000000138e-03
3.657000000000000094e-03
3.686000000000000040e-03
3.739000000000000136e-03
3.748000000000000029e-03
3.730999999999999941e-03
3.703999999999999827e-03
3.700000000000000164e-03
3.706999999999999792e-03
3.706999999999999792e-03
3.671999999999999917e-03
3.661999999999999891e-03
3.693999999999999801e-03
3.720999999999999915e-03
3.726999999999999844e-03
3.697000000000000199e-03
3.671999999999999917e-03
3.654999999999999829e-03
3.690000000000000138e-03
3.720000000000000216e-03
3.690999999999999837e-03
3.680999999999999810e-03
3.687000000000000173e-03
3.713999999999999854e-03
3.717999999999999951e-03
3.684000000000000209e-03
3.673000000000000050e-03
3.680000000000000111e-03
3.697999999999999898e-03
3.697999999999999898e-03
3.677000000000000147e-03
3.678999999999999979e-03
3.677000000000000147e-03
3.706999999999999792e-03
3.726999999999999844e-03
3.703000000000000128e-03
3.684999999999999908e-03
3.661999999999999891e-03
3.683000000000000076e-03
3.707999999999999925e-03
3.696000000000000067e-03
3.650000000000000033e-03
3.661000000000000192e-03
3.674999999999999881e-03
3.693000000000000102e-03
3.681999999999999943e-03
3.658999999999999926e-03
3.655999999999999962e-03
3.677000000000000147e-03
3.687000000000000173e-03
3.677999999999999846e-03
3.663000000000000023e-03
3.680999999999999810e-03
3.687999999999999872e-03
3.684999999999999908e-03
3.686000000000000040e-03
3.668999999999999952e-03
3.667000000000000121e-03
3.693000000000000102e-03
3.691999999999999969e-03
3.667000000000000121e-03
3.648000000000000201e-03
3.676000000000000014e-03
3.704999999999999960e-03
3.716000000000000119e-03
3.690999999999999837e-03
3.671999999999999917e-03
3.674999999999999881e-03
3.725000000000000012e-03
3.733999999999999906e-03
3.707999999999999925e-03
3.714999999999999986e-03
3.712000000000000022e-03
3.726999999999999844e-03
3.746999999999999897e-03
3.732000000000000074e-03
3.713999999999999854e-03
3.726999999999999844e-03
3.768000000000000082e-03
3.762000000000000153e-03
3.729999999999999809e-03
3.726999999999999844e-03
3.713999999999999854e-03
3.714999999999999986e-03
3.703999999999999827e-03
3.670999999999999784e-03
3.638999999999999874e-03
3.652999999999999997e-03
3.691999999999999969e-03
3.703999999999999827e-03
3.678999999999999979e-03
3.663000000000000023e-03
3.663000000000000023e-03
3.667000000000000121e-03
3.677000000000000147e-03
3.668999999999999952e-03
3.665999999999999988e-03
3.683000000000000076e-03
3.684000000000000209e-03
3.686000000000000040e-03
3.664000000000000156e-03
3.638000000000000175e-03
3.640000000000000006e-03
3.670000000000000085e-03
3.694999999999999934e-03
3.703999999999999827e-03
3.712000000000000022e-03
3.844999999999999894e-03
3.977999999999999765e-03
4.035999999999999657e-03
4.044999999999999984e-03
3.945999999999999855e-03
3.817000000000000080e-03
3.774000000000000011e-03
3.712000000000000022e-03
3.550000000000000204e-03
3.458999999999999835e-03
3.520999999999999824e-03
3.616999999999999989e-03
3.657999999999999793e-03
3.655999999999999962e-03
3.664999999999999855e-03
3.674000000000000182e-03
3.693999999999999801e-03
3.717999999999999951e-03
3.684000000000000209e-03
3.670999999999999784e-03
3.674999999999999881e-03
3.700000000000000164e-03
3.713000000000000154e-03
3.693999999999999801e-03
3.678999999999999979e-03
3.667999999999999820e-03
3.689000000000000005e-03
3.710000000000000190e-03
3.690999999999999837e-03
3.667999999999999820e-03
3.689000000000000005e-03
3.706999999999999792e-03
3.726000000000000145e-03
3.713000000000000154e-03
3.693000000000000102e-03
3.687999999999999872e-03
3.719000000000000083e-03
3.726000000000000145e-03
3.706000000000000093e-03
3.676000000000000014e-03
3.687999999999999872e-03
3.723000000000000181e-03
3.725000000000000012e-03
3.730999999999999941e-03
3.701999999999999996e-03
3.710999999999999889e-03
3.749000000000000162e-03
3.761000000000000020e-03
3.733000000000000207e-03
3.700999999999999863e-03
3.713000000000000154e-03
3.753999999999999958e-03
3.772000000000000179e-03
3.755999999999999790e-03
3.745000000000000065e-03
3.755999999999999790e-03
3.775999999999999843e-03
3.778000000000000108e-03
3.794000000000000063e-03
3.774000000000000011e-03
3.795999999999999895e-03
3.825999999999999974e-03
3.821000000000000178e-03
3.820000000000000045e-03
3.807000000000000054e-03
3.833000000000000036e-03
3.860999999999999849e-03
3.873000000000000140e-03
3.853999999999999787e-03
3.848999999999999991e-03
3.867999999999999911e-03
3.889999999999999795e-03
3.902000000000000086e-03
3.897999999999999989e-03
3.886000000000000131e-03
3.884999999999999998e-03
3.880000000000000202e-03
3.908000000000000015e-03
3.929000000000000201e-03
3.906999999999999883e-03
3.889000000000000096e-03
3.886999999999999830e-03
3.906999999999999883e-03
3.880999999999999901e-03
3.863000000000000114e-03
3.850000000000000124e-03
3.850000000000000124e-03
3.812999999999999983e-03
3.772000000000000179e-03
3.743999999999999932e-03
3.749000000000000162e-03
3.781000000000000073e-03
3.787000000000000002e-03
3.736999999999999870e-03
3.706999999999999792e-03
3.687000000000000173e-03
3.687999999999999872e-03
3.690000000000000138e-03
3.681999999999999943e-03
3.673000000000000050e-03
3.676000000000000014e-03
3.693000000000000102e-03
3.696000000000000067e-03
3.671999999999999917e-03
3.671999999999999917e-03
3.681999999999999943e-03
3.652999999999999997e-03
3.631999999999999812e-03
3.641999999999999838e-03
3.664999999999999855e-03
3.680999999999999810e-03
3.674000000000000182e-03
3.664999999999999855e-03
3.644999999999999803e-03
3.641999999999999838e-03
3.654000000000000130e-03
3.658999999999999926e-03
3.657999999999999793e-03
3.642999999999999971e-03
3.650000000000000033e-03
3.664999999999999855e-03
3.670999999999999784e-03
3.676000000000000014e-03
3.661000000000000192e-03
3.631999999999999812e-03
3.658999999999999926e-03
3.681999999999999943e-03
3.668999999999999952e-03
3.644999999999999803e-03
3.635000000000000210e-03
3.642999999999999971e-03
3.680000000000000111e-03
3.681999999999999943e-03
3.654999999999999829e-03
3.647000000000000068e-03
3.635999999999999909e-03
3.645999999999999935e-03
3.638000000000000175e-03
3.627000000000000016e-03
3.635999999999999909e-03
3.641999999999999838e-03
3.644000000000000104e-03
3.629999999999999980e-03
3.629999999999999980e-03
3.621999999999999786e-03
3.627000000000000016e-03
3.651999999999999864e-03
3.648999999999999900e-03
3.631999999999999812e-03
3.605999999999999830e-03
3.615000000000000158e-03
3.644999999999999803e-03
3.641000000000000139e-03
3.615999999999999857e-03
3.615999999999999857e-03
3.625999999999999883e-03
3.648000000000000201e-03
3.629999999999999980e-03
3.628999999999999847e-03
3.638000000000000175e-03
3.634000000000000077e-03
3.641000000000000139e-03
3.648000000000000201e-03
3.621999999999999786e-03
3.599000000000000202e-03
3.618999999999999821e-03
3.637000000000000042e-03
3.638999999999999874e-03
3.641999999999999838e-03
3.625000000000000184e-03
3.631999999999999812e-03
3.648000000000000201e-03
3.631000000000000113e-03
3.605999999999999830e-03
3.606999999999999963e-03
3.598000000000000070e-03
3.627000000000000016e-03
3.674000000000000182e-03
3.648999999999999900e-03
3.615999999999999857e-03
3.615999999999999857e-03
3.644999999999999803e-03
3.631000000000000113e-03
3.606999999999999963e-03
3.622999999999999918e-03
3.624000000000000051e-03
3.638000000000000175e-03
3.641999999999999838e-03
3.631999999999999812e-03
3.612000000000000193e-03
3.616999999999999989e-03
3.632999999999999945e-03
3.648999999999999900e-03
3.632999999999999945e-03
3.618000000000000122e-03
3.621000000000000087e-03
3.641999999999999838e-03
3.632999999999999945e-03
3.609999999999999928e-03
3.583999999999999946e-03
3.603999999999999999e-03
3.635999999999999909e-03
3.644999999999999803e-03
3.629999999999999980e-03
3.621999999999999786e-03
3.638000000000000175e-03
3.645999999999999935e-03
3.632999999999999945e-03
3.624000000000000051e-03
3.631999999999999812e-03
3.622999999999999918e-03
3.625999999999999883e-03
3.650000000000000033e-03
3.641999999999999838e-03
3.640000000000000006e-03
3.667000000000000121e-03
3.658999999999999926e-03
3.663000000000000023e-03
3.638999999999999874e-03
3.621000000000000087e-03
3.621999999999999786e-03
3.647000000000000068e-03
3.667999999999999820e-03
3.670999999999999784e-03
3.674999999999999881e-03
3.684999999999999908e-03
3.687000000000000173e-03
3.690000000000000138e-03
3.652999999999999997e-03
3.619999999999999954e-03
3.644000000000000104e-03
3.664000000000000156e-03
3.640000000000000006e-03
3.614000000000000025e-03
3.599999999999999901e-03
3.606999999999999963e-03
3.635999999999999909e-03
3.631000000000000113e-03
3.601000000000000034e-03
3.576000000000000185e-03
3.603999999999999999e-03
3.628999999999999847e-03
3.599000000000000202e-03
3.553999999999999868e-03
3.539000000000000045e-03
3.596999999999999937e-03
3.665999999999999988e-03
3.635000000000000210e-03
3.606999999999999963e-03
3.576999999999999885e-03
3.588000000000000043e-03
3.628999999999999847e-03
3.648999999999999900e-03
3.670000000000000085e-03
3.769999999999999914e-03
3.892000000000000060e-03
3.984999999999999827e-03
4.027000000000000197e-03
3.976000000000000367e-03
3.847000000000000159e-03
3.740999999999999968e-03
3.667000000000000121e-03
3.534999999999999948e-03
3.471000000000000127e-03
3.490000000000000047e-03
3.550999999999999903e-03
3.595000000000000105e-03
3.629999999999999980e-03
3.638999999999999874e-03
3.637000000000000042e-03
3.631999999999999812e-03
3.644999999999999803e-03
3.655999999999999962e-03
3.632999999999999945e-03
3.621000000000000087e-03
3.621999999999999786e-03
3.645999999999999935e-03
3.651000000000000165e-03
3.627000000000000016e-03
3.611000000000000060e-03
3.642999999999999971e-03
3.677000000000000147e-03
3.676000000000000014e-03
3.647000000000000068e-03
3.652999999999999997e-03
3.657000000000000094e-03
3.670000000000000085e-03
3.674999999999999881e-03
3.673000000000000050e-03
3.657999999999999793e-03
3.668999999999999952e-03
3.671999999999999917e-03
3.670999999999999784e-03
3.671999999999999917e-03
3.650000000000000033e-03
3.667000000000000121e-03
3.716999999999999818e-03
3.697999999999999898e-03
3.655999999999999962e-03
3.668999999999999952e-03
3.680000000000000111e-03
3.707999999999999925e-03
3.725000000000000012e-03
3.689000000000000005e-03
3.684999999999999908e-03
3.697000000000000199e-03
3.726000000000000145e-03
3.729000000000000110e-03
3.716000000000000119e-03
3.716000000000000119e-03
3.733999999999999906e-03
3.762000000000000153e-03
3.765000000000000117e-03
3.746999999999999897e-03
3.733000000000000207e-03
3.765999999999999816e-03
3.811999999999999850e-03
3.811999999999999850e-03
3.789999999999999966e-03
3.789999999999999966e-03
3.810000000000000019e-03
3.808000000000000187e-03
3.830000000000000071e-03
3.847999999999999858e-03
3.837999999999999832e-03
3.847999999999999858e-03
3.893999999999999892e-03
3.897999999999999989e-03
3.880000000000000202e-03
3.873999999999999840e-03
3.889999999999999795e-03
3.911000000000000414e-03
3.910000000000000281e-03
3.883999999999999866e-03
3.873000000000000140e-03
3.893999999999999892e-03
3.902000000000000086e-03
3.883000000000000167e-03
3.828999999999999938e-03
3.801999999999999824e-03
3.804999999999999789e-03
3.808000000000000187e-03
3.778000000000000108e-03
3.720999999999999915e-03
3.704999999999999960e-03
3.709000000000000057e-03
3.681999999999999943e-03
3.670000000000000085e-03
3.667999999999999820e-03
3.660000000000000059e-03
3.654999999999999829e-03
3.667000000000000121e-03
3.655999999999999962e-03
3.621000000000000087e-03
3.586999999999999911e-03
3.616999999999999989e-03
3.648000000000000201e-03
3.638000000000000175e-03
3.615999999999999857e-03
3.605999999999999830e-03
3.631000000000000113e-03
3.638999999999999874e-03
3.640000000000000006e-03
3.611000000000000060e-03
3.589999999999999875e-03
3.614000000000000025e-03
3.624000000000000051e-03
3.628999999999999847e-03
3.627000000000000016e-03
3.616999999999999989e-03
3.621000000000000087e-03
3.638000000000000175e-03
3.618999999999999821e-03
3.602999999999999866e-03
3.598000000000000070e-03
3.615000000000000158e-03
3.629999999999999980e-03
3.625000000000000184e-03
3.625999999999999883e-03
3.624000000000000051e-03
3.638000000000000175e-03
3.635000000000000210e-03
3.616999999999999989e-03
3.599999999999999901e-03
3.608999999999999795e-03
3.641999999999999838e-03
3.651999999999999864e-03
3.628999999999999847e-03
3.599999999999999901e-03
3.602999999999999866e-03
3.616999999999999989e-03
3.625000000000000184e-03
3.608999999999999795e-03
3.589000000000000176e-03
3.580999999999999982e-03
3.606999999999999963e-03
3.632999999999999945e-03
3.628000000000000148e-03
3.611000000000000060e-03
3.608000000000000096e-03
3.605000000000000131e-03
3.612000000000000193e-03
3.625000000000000184e-03
3.608999999999999795e-03
3.588000000000000043e-03
3.595999999999999804e-03
3.622999999999999918e-03
3.631000000000000113e-03
3.615000000000000158e-03
3.592000000000000141e-03
3.592000000000000141e-03
3.598000000000000070e-03
3.595000000000000105e-03
3.592000000000000141e-03
3.596999999999999937e-03
3.599000000000000202e-03
3.632999999999999945e-03
3.591000000000000008e-03
3.557999999999999965e-03
3.583999999999999946e-03
3.618000000000000122e-03
3.621000000000000087e-03
3.605000000000000131e-03
3.579000000000000150e-03
3.573999999999999920e-03
3.579999999999999849e-03
3.602999999999999866e-03
3.589999999999999875e-03
3.588000000000000043e-03
3.580999999999999982e-03
3.598000000000000070e-03
3.619999999999999954e-03
3.592999999999999840e-03
3.595999999999999804e-03
3.578000000000000017e-03
3.602000000000000167e-03
3.614000000000000025e-03
3.595999999999999804e-03
3.572999999999999787e-03
3.582999999999999814e-03
3.599000000000000202e-03
3.605999999999999830e-03
3.586000000000000212e-03
3.576999999999999885e-03
3.570999999999999956e-03
3.589999999999999875e-03
3.596999999999999937e-03
3.595000000000000105e-03
3.586999999999999911e-03
3.588000000000000043e-03
3.588000000000000043e-03
3.592999999999999840e-03
3.588000000000000043e-03
3.583999999999999946e-03
3.579000000000000150e-03
3.586999999999999911e-03
3.588000000000000043e-03
3.579999999999999849e-03
3.563000000000000195e-03
3.557999999999999965e-03
3.591000000000000008e-03
3.602000000000000167e-03
3.582000000000000114e-03
3.546999999999999806e-03
3.546000000000000107e-03
3.586999999999999911e-03
3.605000000000000131e-03
3.588000000000000043e-03
3.575000000000000053e-03
3.579000000000000150e-03
3.583999999999999946e-03
3.596999999999999937e-03
3.606999999999999963e-03
3.586999999999999911e-03
3.570999999999999956e-03
3.588000000000000043e-03
3.602999999999999866e-03
3.583999999999999946e-03
3.563999999999999894e-03
3.559999999999999797e-03
3.582999999999999814e-03
3.634000000000000077e-03
3.638000000000000175e-03
3.611000000000000060e-03
3.598000000000000070e-03
3.625999999999999883e-03
3.631000000000000113e-03
3.614000000000000025e-03
3.579000000000000150e-03
3.585000000000000079e-03
3.644000000000000104e-03
3.684999999999999908e-03
3.667999999999999820e-03
3.641999999999999838e-03
3.612000000000000193e-03
3.635000000000000210e-03
3.637000000000000042e-03
3.592999999999999840e-03
3.556000000000000133e-03
3.556000000000000133e-03
3.569999999999999823e-03
3.566000000000000159e-03
3.559000000000000098e-03
3.566000000000000159e-03
3.569999999999999823e-03
3.576999999999999885e-03
3.589999999999999875e-03
3.566000000000000159e-03
3.534999999999999948e-03
3.533000000000000116e-03
3.550999999999999903e-03
3.567999999999999991e-03
3.572999999999999787e-03
3.559999999999999797e-03
3.537000000000000213e-03
3.559999999999999797e-03
3.573999999999999920e-03
3.557999999999999965e-03
3.547999999999999939e-03
3.586000000000000212e-03
3.618999999999999821e-03
3.686000000000000040e-03
3.812999999999999983e-03
3.897999999999999989e-03
3.962000000000000244e-03
3.996000000000000420e-03
3.900999999999999954e-03
3.756999999999999923e-03
3.660000000000000059e-03
3.533999999999999815e-03
3.406000000000000173e-03
3.386999999999999820e-03
3.441000000000000048e-03
3.461999999999999800e-03
3.501999999999999905e-03
3.582999999999999814e-03
3.628000000000000148e-03
3.595000000000000105e-03
3.578000000000000017e-03
3.563000000000000195e-03
3.586000000000000212e-03
3.618999999999999821e-03
3.598000000000000070e-03
3.580999999999999982e-03
3.592000000000000141e-03
3.611000000000000060e-03
3.616999999999999989e-03
3.603999999999999999e-03
3.595000000000000105e-03
3.576000000000000185e-03
3.602999999999999866e-03
3.629999999999999980e-03
3.615999999999999857e-03
3.601000000000000034e-03
3.586999999999999911e-03
3.612999999999999892e-03
3.632999999999999945e-03
3.599999999999999901e-03
3.592999999999999840e-03
3.614000000000000025e-03
3.637000000000000042e-03
3.644999999999999803e-03
3.637000000000000042e-03
3.611000000000000060e-03
3.612999999999999892e-03
3.637000000000000042e-03
3.645999999999999935e-03
3.635000000000000210e-03
3.637000000000000042e-03
3.631999999999999812e-03
3.652999999999999997e-03
3.670999999999999784e-03
3.642999999999999971e-03
3.655999999999999962e-03
3.674000000000000182e-03
3.693999999999999801e-03
3.699000000000000031e-03
3.697000000000000199e-03
3.670999999999999784e-03
3.670000000000000085e-03
3.720999999999999915e-03
3.762000000000000153e-03
3.746000000000000198e-03
3.713000000000000154e-03
3.712000000000000022e-03
3.755000000000000091e-03
3.788000000000000134e-03
3.784000000000000037e-03
3.755999999999999790e-03
3.756999999999999923e-03
3.798999999999999860e-03
3.801999999999999824e-03
3.807000000000000054e-03
3.797000000000000028e-03
3.807000000000000054e-03
3.840000000000000097e-03
3.843000000000000062e-03
3.864999999999999946e-03
3.861999999999999982e-03
3.846000000000000026e-03
3.861999999999999982e-03
3.870000000000000176e-03
3.856000000000000053e-03
3.833000000000000036e-03
3.824999999999999841e-03
3.818000000000000213e-03
3.814000000000000116e-03
3.798999999999999860e-03
3.752999999999999826e-03
3.730999999999999941e-03
3.727999999999999977e-03
3.701999999999999996e-03
3.677000000000000147e-03
3.658999999999999926e-03
3.647000000000000068e-03
3.616999999999999989e-03
3.625999999999999883e-03
3.615999999999999857e-03
3.580999999999999982e-03
3.583999999999999946e-03
3.592000000000000141e-03
3.589999999999999875e-03
3.595000000000000105e-03
3.569000000000000124e-03
3.547999999999999939e-03
3.567999999999999991e-03
3.593999999999999972e-03
3.589000000000000176e-03
3.559000000000000098e-03
3.565000000000000027e-03
3.586000000000000212e-03
3.595000000000000105e-03
3.566999999999999858e-03
3.550000000000000204e-03
3.562000000000000062e-03
3.582000000000000114e-03
3.576000000000000185e-03
3.569999999999999823e-03
3.566000000000000159e-03
3.606999999999999963e-03
3.625999999999999883e-03
3.598000000000000070e-03
3.569000000000000124e-03
3.553999999999999868e-03
3.569000000000000124e-03
3.569999999999999823e-03
3.576000000000000185e-03
3.559999999999999797e-03
3.543999999999999841e-03
3.566000000000000159e-03
3.605999999999999830e-03
3.588000000000000043e-03
3.562000000000000062e-03
3.566999999999999858e-03
3.555000000000000000e-03
3.570999999999999956e-03
3.585000000000000079e-03
3.553000000000000169e-03
3.543000000000000142e-03
3.559999999999999797e-03
3.582999999999999814e-03
3.608999999999999795e-03
3.579999999999999849e-03
3.553000000000000169e-03
3.576000000000000185e-03
3.599000000000000202e-03
3.582000000000000114e-03
3.565000000000000027e-03
3.546999999999999806e-03
3.576999999999999885e-03
3.592000000000000141e-03
3.576999999999999885e-03
3.569999999999999823e-03
3.537000000000000213e-03
3.556000000000000133e-03
3.585000000000000079e-03
3.562000000000000062e-03
3.556999999999999832e-03
3.542000000000000010e-03
3.527999999999999886e-03
3.559999999999999797e-03
3.586999999999999911e-03
3.582000000000000114e-03
3.563000000000000195e-03
3.566000000000000159e-03
3.578000000000000017e-03
3.589000000000000176e-03
3.542000000000000010e-03
3.523000000000000090e-03
3.530999999999999851e-03
3.559000000000000098e-03
3.585000000000000079e-03
3.576000000000000185e-03
3.550000000000000204e-03
3.550999999999999903e-03
3.566999999999999858e-03
3.572999999999999787e-03
3.553999999999999868e-03
3.531999999999999983e-03
3.562000000000000062e-03
3.592999999999999840e-03
3.593999999999999972e-03
3.572999999999999787e-03
3.542000000000000010e-03
3.546000000000000107e-03
3.576000000000000185e-03
3.576000000000000185e-03
3.572000000000000088e-03
3.573999999999999920e-03
3.553000000000000169e-03
3.563999999999999894e-03
3.576999999999999885e-03
3.543999999999999841e-03
3.536000000000000081e-03
3.555000000000000000e-03
3.572000000000000088e-03
3.592999999999999840e-03
3.569999999999999823e-03
3.550000000000000204e-03
3.557999999999999965e-03
3.588000000000000043e-03
3.601000000000000034e-03
3.586000000000000212e-03
3.553999999999999868e-03
3.557999999999999965e-03
3.575000000000000053e-03
3.566000000000000159e-03
3.553000000000000169e-03
3.570999999999999956e-03
3.570999999999999956e-03
3.588000000000000043e-03
3.556999999999999832e-03
3.546000000000000107e-03
3.560999999999999929e-03
3.572999999999999787e-03
3.562000000000000062e-03
3.570999999999999956e-03
3.572000000000000088e-03
3.567999999999999991e-03
3.546999999999999806e-03
3.579999999999999849e-03
3.585000000000000079e-03
3.563000000000000195e-03
3.563999999999999894e-03
3.588000000000000043e-03
3.615000000000000158e-03
3.628000000000000148e-03
3.603999999999999999e-03
3.570999999999999956e-03
3.566000000000000159e-03
3.593999999999999972e-03
3.602999999999999866e-03
3.592000000000000141e-03
3.595999999999999804e-03
3.619999999999999954e-03
3.634000000000000077e-03
3.640000000000000006e-03
3.644999999999999803e-03
3.612999999999999892e-03
3.585000000000000079e-03
3.586000000000000212e-03
3.579000000000000150e-03
3.579999999999999849e-03
3.579999999999999849e-03
3.575000000000000053e-03
3.576000000000000185e-03
3.595000000000000105e-03
3.585000000000000079e-03
3.523000000000000090e-03
3.527000000000000187e-03
3.546999999999999806e-03
3.553999999999999868e-03
3.540999999999999877e-03
3.540999999999999877e-03
3.550000000000000204e-03
3.576999999999999885e-03
3.599000000000000202e-03
3.566999999999999858e-03
3.543999999999999841e-03
3.552000000000000036e-03
3.596999999999999937e-03
3.579999999999999849e-03
3.565000000000000027e-03
3.595999999999999804e-03
3.618999999999999821e-03
3.680000000000000111e-03
3.808000000000000187e-03
3.912999999999999812e-03
3.930999999999999599e-03
3.917000000000000343e-03
3.802999999999999957e-03
3.648000000000000201e-03
3.547999999999999939e-03
3.449999999999999942e-03
3.384999999999999988e-03
3.344999999999999883e-03
3.418000000000000031e-03
3.494999999999999843e-03
3.523000000000000090e-03
3.576000000000000185e-03
3.621000000000000087e-03
3.621999999999999786e-03
3.592000000000000141e-03
3.576999999999999885e-03
3.589000000000000176e-03
3.637000000000000042e-03
3.654999999999999829e-03
3.615000000000000158e-03
3.602999999999999866e-03
3.611000000000000060e-03
3.628000000000000148e-03
3.619999999999999954e-03
3.627000000000000016e-03
3.608000000000000096e-03
3.615999999999999857e-03
3.664000000000000156e-03
3.664999999999999855e-03
3.635000000000000210e-03
3.621000000000000087e-03
3.627000000000000016e-03
3.654999999999999829e-03
3.680000000000000111e-03
3.663000000000000023e-03
3.609999999999999928e-03
3.640000000000000006e-03
3.683000000000000076e-03
3.670999999999999784e-03
3.641000000000000139e-03
3.650000000000000033e-03
3.670000000000000085e-03
3.683000000000000076e-03
3.710999999999999889e-03
3.684999999999999908e-03
3.676000000000000014e-03
3.706000000000000093e-03
3.714999999999999986e-03
3.713999999999999854e-03
3.690999999999999837e-03
3.686000000000000040e-03
3.719000000000000083e-03
3.727999999999999977e-03
3.722000000000000048e-03
3.700000000000000164e-03
3.736000000000000171e-03
3.740999999999999968e-03
3.785000000000000170e-03
3.799999999999999992e-03
3.755999999999999790e-03
3.740999999999999968e-03
3.779999999999999940e-03
3.779999999999999940e-03
3.798000000000000161e-03
3.808000000000000187e-03
3.804999999999999789e-03
3.810000000000000019e-03
3.834999999999999867e-03
3.847000000000000159e-03
3.824000000000000142e-03
3.828999999999999938e-03
3.847000000000000159e-03
3.853999999999999787e-03
3.843000000000000062e-03
3.850000000000000124e-03
3.847000000000000159e-03
3.841999999999999929e-03
3.880000000000000202e-03
3.876999999999999804e-03
3.831000000000000204e-03
3.805999999999999921e-03
3.825999999999999974e-03
3.841999999999999929e-03
3.831999999999999903e-03
3.788999999999999833e-03
3.756999999999999923e-03
3.745000000000000065e-03
3.772000000000000179e-03
3.733000000000000207e-03
3.700999999999999863e-03
3.677000000000000147e-03
3.683000000000000076e-03
3.686000000000000040e-03
3.690999999999999837e-03
3.657999999999999793e-03
3.625999999999999883e-03
3.631000000000000113e-03
3.661000000000000192e-03
3.618000000000000122e-03
3.588000000000000043e-03
3.614000000000000025e-03
3.658999999999999926e-03
3.684000000000000209e-03
3.641000000000000139e-03
3.631000000000000113e-03
3.625000000000000184e-03
3.628000000000000148e-03
3.641999999999999838e-03
3.640000000000000006e-03
3.625000000000000184e-03
3.642999999999999971e-03
3.655999999999999962e-03
3.671999999999999917e-03
3.667999999999999820e-03
3.624000000000000051e-03
3.615999999999999857e-03
3.641000000000000139e-03
3.652999999999999997e-03
3.651000000000000165e-03
3.631000000000000113e-03
3.625000000000000184e-03
3.667000000000000121e-03
3.664000000000000156e-03
3.640000000000000006e-03
3.605000000000000131e-03
3.596999999999999937e-03
3.641000000000000139e-03
3.660000000000000059e-03
3.642999999999999971e-03
3.619999999999999954e-03
3.615000000000000158e-03
3.635000000000000210e-03
3.644000000000000104e-03
3.650000000000000033e-03
3.638000000000000175e-03
3.608999999999999795e-03
3.631999999999999812e-03
3.668999999999999952e-03
3.674000000000000182e-03
3.628999999999999847e-03
3.606999999999999963e-03
3.621999999999999786e-03
3.640000000000000006e-03
3.645999999999999935e-03
3.628999999999999847e-03
3.608000000000000096e-03
3.621000000000000087e-03
3.644000000000000104e-03
3.641000000000000139e-03
3.618000000000000122e-03
3.579000000000000150e-03
3.595000000000000105e-03
3.644000000000000104e-03
3.654999999999999829e-03
3.637000000000000042e-03
3.624000000000000051e-03
3.614000000000000025e-03
3.634000000000000077e-03
3.648000000000000201e-03
3.634000000000000077e-03
3.627000000000000016e-03
3.638000000000000175e-03
3.628000000000000148e-03
3.628000000000000148e-03
3.612000000000000193e-03
3.622999999999999918e-03
3.650000000000000033e-03
3.658999999999999926e-03
3.635000000000000210e-03
3.615999999999999857e-03
3.599999999999999901e-03
3.611000000000000060e-03
3.627000000000000016e-03
3.631000000000000113e-03
3.628000000000000148e-03
3.598000000000000070e-03
3.615000000000000158e-03
3.668999999999999952e-03
3.665999999999999988e-03
3.624000000000000051e-03
3.625999999999999883e-03
3.654000000000000130e-03
3.644000000000000104e-03
3.644000000000000104e-03
3.631999999999999812e-03
3.615000000000000158e-03
3.618999999999999821e-03
3.645999999999999935e-03
3.642999999999999971e-03
3.624000000000000051e-03
3.631999999999999812e-03
3.641999999999999838e-03
3.648999999999999900e-03
3.665999999999999988e-03
3.654000000000000130e-03
3.632999999999999945e-03
3.676000000000000014e-03
3.733000000000000207e-03
3.700999999999999863e-03
3.652999999999999997e-03
3.640000000000000006e-03
3.661999999999999891e-03
3.689000000000000005e-03
3.703000000000000128e-03
3.712000000000000022e-03
3.703000000000000128e-03
3.691999999999999969e-03
3.725000000000000012e-03
3.723999999999999880e-03
3.661999999999999891e-03
3.650000000000000033e-03
3.671999999999999917e-03
3.683000000000000076e-03
3.657999999999999793e-03
3.647000000000000068e-03
3.641000000000000139e-03
3.655999999999999962e-03
3.657000000000000094e-03
3.652999999999999997e-03
3.635000000000000210e-03
3.629999999999999980e-03
3.651999999999999864e-03
3.657999999999999793e-03
3.670999999999999784e-03
3.651999999999999864e-03
3.638000000000000175e-03
3.638999999999999874e-03
3.648999999999999900e-03
3.664999999999999855e-03
3.654000000000000130e-03
3.644000000000000104e-03
3.652999999999999997e-03
3.677000000000000147e-03
3.697000000000000199e-03
3.681999999999999943e-03
3.726999999999999844e-03
3.850999999999999823e-03
3.943999999999999589e-03
3.948000000000000120e-03
3.919999999999999873e-03
3.823000000000000009e-03
3.709000000000000057e-03
3.654999999999999829e-03
3.580999999999999982e-03
3.465000000000000198e-03
3.429999999999999889e-03
3.537999999999999912e-03
3.615999999999999857e-03
3.641000000000000139e-03
3.635000000000000210e-03
3.652999999999999997e-03
3.697999999999999898e-03
3.704999999999999960e-03
3.691999999999999969e-03
3.670000000000000085e-03
3.667000000000000121e-03
3.677999999999999846e-03
3.706000000000000093e-03
3.709000000000000057e-03
3.691999999999999969e-03
3.677999999999999846e-03
3.706000000000000093e-03
3.735000000000000039e-03
3.704999999999999960e-03
3.677000000000000147e-03
3.684999999999999908e-03
3.689000000000000005e-03
3.701999999999999996e-03
3.726000000000000145e-03
3.722000000000000048e-03
3.713000000000000154e-03
3.722000000000000048e-03
3.746000000000000198e-03
3.733999999999999906e-03
3.710999999999999889e-03
3.716999999999999818e-03
3.755999999999999790e-03
3.755000000000000091e-03
3.732000000000000074e-03
3.723000000000000181e-03
3.738000000000000003e-03
3.746999999999999897e-03
3.778999999999999807e-03
3.758000000000000056e-03
3.723000000000000181e-03
3.726999999999999844e-03
3.779999999999999940e-03
3.808999999999999886e-03
3.797000000000000028e-03
3.765000000000000117e-03
3.771000000000000046e-03
3.814999999999999815e-03
3.833000000000000036e-03
3.814000000000000116e-03
3.791999999999999798e-03
3.821000000000000178e-03
3.828999999999999938e-03
3.860000000000000150e-03
3.863999999999999813e-03
3.825999999999999974e-03
3.838999999999999965e-03
3.853999999999999787e-03
3.876000000000000105e-03
3.896999999999999856e-03
3.892000000000000060e-03
3.873999999999999840e-03
3.880000000000000202e-03
3.893000000000000193e-03
3.899999999999999821e-03
3.913999999999999944e-03
3.917000000000000343e-03
3.926999999999999935e-03
3.919999999999999873e-03
3.917999999999999608e-03
3.918999999999999741e-03
3.916000000000000210e-03
3.906000000000000184e-03
3.938999999999999793e-03
3.930999999999999599e-03
3.876999999999999804e-03
3.838999999999999965e-03
3.847999999999999858e-03
3.863000000000000114e-03
3.799999999999999992e-03
3.779999999999999940e-03
3.781000000000000073e-03
3.784000000000000037e-03
3.791999999999999798e-03
3.778999999999999807e-03
3.739999999999999835e-03
3.720999999999999915e-03
3.726000000000000145e-03
3.736000000000000171e-03
3.732000000000000074e-03
3.700999999999999863e-03
3.683000000000000076e-03
3.710999999999999889e-03
3.739999999999999835e-03
3.697999999999999898e-03
3.670000000000000085e-03
3.661999999999999891e-03
3.696000000000000067e-03
3.727999999999999977e-03
3.712000000000000022e-03
3.678999999999999979e-03
3.683000000000000076e-03
3.713999999999999854e-03
3.716000000000000119e-03
3.697000000000000199e-03
3.681999999999999943e-03
3.693999999999999801e-03
3.717999999999999951e-03
3.730999999999999941e-03
3.706000000000000093e-03
3.687000000000000173e-03
3.687000000000000173e-03
3.720999999999999915e-03
3.730999999999999941e-03
3.710999999999999889e-03
3.697000000000000199e-03
3.687999999999999872e-03
3.713000000000000154e-03
3.740999999999999968e-03
3.717999999999999951e-03
3.707999999999999925e-03
3.690999999999999837e-03
3.704999999999999960e-03
3.723999999999999880e-03
3.690999999999999837e-03
3.664000000000000156e-03
3.681999999999999943e-03
3.699000000000000031e-03
3.722000000000000048e-03
3.717999999999999951e-03
3.693000000000000102e-03
3.674999999999999881e-03
3.707999999999999925e-03
3.725000000000000012e-03
3.690000000000000138e-03
3.693000000000000102e-03
3.654999999999999829e-03
3.690000000000000138e-03
3.738000000000000003e-03
3.714999999999999986e-03
3.680999999999999810e-03
3.660000000000000059e-03
3.668999999999999952e-03
3.703000000000000128e-03
3.700000000000000164e-03
3.667000000000000121e-03
3.680999999999999810e-03
3.714999999999999986e-03
3.706000000000000093e-03
3.687999999999999872e-03
3.652999999999999997e-03
3.667000000000000121e-03
3.700999999999999863e-03
3.706000000000000093e-03
3.693999999999999801e-03
3.686000000000000040e-03
3.687999999999999872e-03
3.686000000000000040e-03
3.704999999999999960e-03
3.690000000000000138e-03
3.670999999999999784e-03
3.657999999999999793e-03
3.670000000000000085e-03
3.687000000000000173e-03
3.699000000000000031e-03
3.693999999999999801e-03
3.683000000000000076e-03
3.687999999999999872e-03
3.691999999999999969e-03
3.690999999999999837e-03
3.674999999999999881e-03
3.674000000000000182e-03
3.687000000000000173e-03
3.689000000000000005e-03
3.677999999999999846e-03
3.658999999999999926e-03
3.674999999999999881e-03
3.690000000000000138e-03
3.680000000000000111e-03
3.674999999999999881e-03
3.676000000000000014e-03
3.660000000000000059e-03
3.678999999999999979e-03
3.696000000000000067e-03
3.681999999999999943e-03
3.657999999999999793e-03
3.664000000000000156e-03
3.703000000000000128e-03
3.697999999999999898e-03
3.680000000000000111e-03
3.663000000000000023e-03
3.657999999999999793e-03
3.677000000000000147e-03
3.673000000000000050e-03
3.658999999999999926e-03
3.667000000000000121e-03
3.668999999999999952e-03
3.687000000000000173e-03
3.697999999999999898e-03
3.700999999999999863e-03
3.706000000000000093e-03
3.726000000000000145e-03
3.733000000000000207e-03
3.729999999999999809e-03
3.694999999999999934e-03
3.681999999999999943e-03
3.707999999999999925e-03
3.732000000000000074e-03
3.759000000000000188e-03
3.727999999999999977e-03
3.701999999999999996e-03
3.676000000000000014e-03
3.686000000000000040e-03
3.716999999999999818e-03
3.704999999999999960e-03
3.664999999999999855e-03
3.651999999999999864e-03
3.647000000000000068e-03
3.677000000000000147e-03
3.670000000000000085e-03
3.648999999999999900e-03
3.648999999999999900e-03
3.661000000000000192e-03
3.676000000000000014e-03
3.663000000000000023e-03
3.654000000000000130e-03
3.642999999999999971e-03
3.647000000000000068e-03
3.660000000000000059e-03
3.664999999999999855e-03
3.638999999999999874e-03
3.634000000000000077e-03
3.651000000000000165e-03
3.671999999999999917e-03
3.657999999999999793e-03
3.647000000000000068e-03
3.674000000000000182e-03
3.719000000000000083e-03
3.821999999999999877e-03
3.905000000000000051e-03
3.948000000000000120e-03
3.996999999999999685e-03
3.964999999999999775e-03
3.838999999999999965e-03
3.723000000000000181e-03
3.644999999999999803e-03
3.531999999999999983e-03
3.478000000000000189e-03
3.531999999999999983e-03
3.586000000000000212e-03
3.580999999999999982e-03
3.609999999999999928e-03
3.687999999999999872e-03
3.703000000000000128e-03
3.681999999999999943e-03
3.665999999999999988e-03
3.663000000000000023e-03
3.671999999999999917e-03
3.673000000000000050e-03
3.658999999999999926e-03
3.648000000000000201e-03
3.651999999999999864e-03
3.700999999999999863e-03
3.703000000000000128e-03
3.661999999999999891e-03
3.637000000000000042e-03
3.654000000000000130e-03
3.693999999999999801e-03
3.706999999999999792e-03
3.696000000000000067e-03
3.673000000000000050e-03
3.684000000000000209e-03
3.713999999999999854e-03
3.707999999999999925e-03
3.678999999999999979e-03
3.668999999999999952e-03
3.693999999999999801e-03
3.704999999999999960e-03
3.706999999999999792e-03
3.713999999999999854e-03
3.704999999999999960e-03
3.697999999999999898e-03
3.696000000000000067e-03
3.704999999999999960e-03
3.726999999999999844e-03
3.720999999999999915e-03
3.730999999999999941e-03
3.755000000000000091e-03
3.752000000000000127e-03
3.717999999999999951e-03
3.716999999999999818e-03
3.729999999999999809e-03
3.758000000000000056e-03
3.766999999999999949e-03
3.759000000000000188e-03
3.763999999999999985e-03
3.772999999999999878e-03
3.782000000000000205e-03
3.774000000000000011e-03
3.762999999999999852e-03
3.791999999999999798e-03
3.810000000000000019e-03
3.833000000000000036e-03
3.853999999999999787e-03
3.844999999999999894e-03
3.827000000000000107e-03
3.838999999999999965e-03
3.859000000000000017e-03
3.861999999999999982e-03
3.867999999999999911e-03
3.861999999999999982e-03
3.867000000000000211e-03
3.887999999999999963e-03
3.906000000000000184e-03
3.864999999999999946e-03
3.838999999999999965e-03
3.880000000000000202e-03
3.926999999999999935e-03
3.924999999999999670e-03
3.887999999999999963e-03
3.867000000000000211e-03
3.850999999999999823e-03
3.848999999999999991e-03
3.846000000000000026e-03
3.795000000000000196e-03
3.776999999999999975e-03
3.765999999999999816e-03
3.766999999999999949e-03
3.753999999999999958e-03
3.725000000000000012e-03
3.712000000000000022e-03
3.707999999999999925e-03
3.722000000000000048e-03
3.712000000000000022e-03
3.668999999999999952e-03
3.651000000000000165e-03
3.657999999999999793e-03
3.670000000000000085e-03
3.667000000000000121e-03
3.650000000000000033e-03
3.648000000000000201e-03
3.645999999999999935e-03
3.650000000000000033e-03
3.654999999999999829e-03
3.654999999999999829e-03
3.606999999999999963e-03
3.605999999999999830e-03
3.648999999999999900e-03
3.678999999999999979e-03
3.668999999999999952e-03
3.628999999999999847e-03
3.648000000000000201e-03
3.661999999999999891e-03
3.667999999999999820e-03
3.641000000000000139e-03
3.622999999999999918e-03
3.644999999999999803e-03
3.670000000000000085e-03
3.674999999999999881e-03
3.648999999999999900e-03
3.624000000000000051e-03
3.627000000000000016e-03
3.654000000000000130e-03
3.641999999999999838e-03
3.635000000000000210e-03
3.650000000000000033e-03
3.647000000000000068e-03
3.645999999999999935e-03
3.648000000000000201e-03
3.654999999999999829e-03
3.641000000000000139e-03
3.635999999999999909e-03
3.664000000000000156e-03
3.641999999999999838e-03
3.638000000000000175e-03
3.638000000000000175e-03
3.631000000000000113e-03
3.648000000000000201e-03
3.657999999999999793e-03
3.628000000000000148e-03
3.618999999999999821e-03
3.621000000000000087e-03
3.644000000000000104e-03
3.648000000000000201e-03
3.615999999999999857e-03
3.605999999999999830e-03
3.622999999999999918e-03
3.642999999999999971e-03
3.647000000000000068e-03
3.632999999999999945e-03
3.615999999999999857e-03
3.606999999999999963e-03
3.618999999999999821e-03
3.641000000000000139e-03
3.644000000000000104e-03
3.621999999999999786e-03
3.583999999999999946e-03
3.589999999999999875e-03
3.602999999999999866e-03
3.635000000000000210e-03
3.631000000000000113e-03
3.631999999999999812e-03
3.638000000000000175e-03
3.632999999999999945e-03
3.601000000000000034e-03
3.591000000000000008e-03
3.625999999999999883e-03
3.644999999999999803e-03
3.638999999999999874e-03
3.611000000000000060e-03
3.592999999999999840e-03
3.608999999999999795e-03
3.619999999999999954e-03
3.615999999999999857e-03
3.589000000000000176e-03
3.589000000000000176e-03
3.641000000000000139e-03
3.684000000000000209e-03
3.638999999999999874e-03
3.618000000000000122e-03
3.603999999999999999e-03
3.612000000000000193e-03
3.627000000000000016e-03
3.612000000000000193e-03
3.602999999999999866e-03
3.599000000000000202e-03
3.616999999999999989e-03
3.641000000000000139e-03
3.622999999999999918e-03
3.602000000000000167e-03
3.598000000000000070e-03
3.598000000000000070e-03
3.621999999999999786e-03
3.627000000000000016e-03
3.599999999999999901e-03
3.599999999999999901e-03
3.624000000000000051e-03
3.635000000000000210e-03
3.637000000000000042e-03
3.615999999999999857e-03
3.616999999999999989e-03
3.611000000000000060e-03
3.618999999999999821e-03
3.619999999999999954e-03
3.602999999999999866e-03
3.602999999999999866e-03
3.608999999999999795e-03
3.621000000000000087e-03
3.629999999999999980e-03
3.641999999999999838e-03
3.622999999999999918e-03
3.602000000000000167e-03
3.624000000000000051e-03
3.635000000000000210e-03
3.624000000000000051e-03
3.615999999999999857e-03
3.602000000000000167e-03
3.612999999999999892e-03
3.628999999999999847e-03
3.625999999999999883e-03
3.619999999999999954e-03
3.638999999999999874e-03
3.658999999999999926e-03
3.657999999999999793e-03
3.619999999999999954e-03
3.625999999999999883e-03
3.657999999999999793e-03
3.681999999999999943e-03
3.667999999999999820e-03
3.654000000000000130e-03
3.644999999999999803e-03
3.660000000000000059e-03
3.693999999999999801e-03
3.703000000000000128e-03
3.678999999999999979e-03
3.655999999999999962e-03
3.661000000000000192e-03
3.677999999999999846e-03
3.657000000000000094e-03
3.609999999999999928e-03
3.592999999999999840e-03
3.603999999999999999e-03
3.625000000000000184e-03
3.624000000000000051e-03
3.602999999999999866e-03
3.596999999999999937e-03
3.602999999999999866e-03
3.634000000000000077e-03
3.629999999999999980e-03
3.608000000000000096e-03
3.608000000000000096e-03
3.606999999999999963e-03
3.618000000000000122e-03
3.619999999999999954e-03
3.579999999999999849e-03
3.583999999999999946e-03
3.602000000000000167e-03
3.615999999999999857e-03
3.624000000000000051e-03
3.628999999999999847e-03
3.644000000000000104e-03
3.720000000000000216e-03
3.859000000000000017e-03
3.941000000000000059e-03
3.970999999999999704e-03
3.978999999999999898e-03
3.919999999999999873e-03
3.831999999999999903e-03
3.755999999999999790e-03
3.618000000000000122e-03
3.472999999999999959e-03
3.467000000000000030e-03
3.543999999999999841e-03
3.589000000000000176e-03
3.582999999999999814e-03
3.596999999999999937e-03
3.621999999999999786e-03
3.647000000000000068e-03
3.648000000000000201e-03
3.650000000000000033e-03
3.634000000000000077e-03
3.640000000000000006e-03
3.655999999999999962e-03
3.642999999999999971e-03
3.629999999999999980e-03
3.644999999999999803e-03
3.670000000000000085e-03
3.677000000000000147e-03
3.681999999999999943e-03
3.665999999999999988e-03
3.641999999999999838e-03
3.651000000000000165e-03
3.680999999999999810e-03
3.664000000000000156e-03
3.635000000000000210e-03
3.631999999999999812e-03
3.664000000000000156e-03
3.678999999999999979e-03
3.670000000000000085e-03
3.657000000000000094e-03
3.652999999999999997e-03
3.670999999999999784e-03
3.696000000000000067e-03
3.707999999999999925e-03
3.668999999999999952e-03
3.635000000000000210e-03
3.664999999999999855e-03
3.723000000000000181e-03
3.730999999999999941e-03
3.696000000000000067e-03
3.680999999999999810e-03
3.710000000000000190e-03
3.739000000000000136e-03
3.720999999999999915e-03
3.689000000000000005e-03
3.706000000000000093e-03
3.740999999999999968e-03
3.762999999999999852e-03
3.769999999999999914e-03
3.752000000000000127e-03
3.753999999999999958e-03
3.758000000000000056e-03
3.775999999999999843e-03
3.794000000000000063e-03
3.787000000000000002e-03
3.772000000000000179e-03
3.772000000000000179e-03
3.810000000000000019e-03
3.810000000000000019e-03
3.810000000000000019e-03
3.824000000000000142e-03
3.853000000000000088e-03
3.866000000000000079e-03
3.863000000000000114e-03
3.853999999999999787e-03
3.850000000000000124e-03
3.880000000000000202e-03
3.902000000000000086e-03
3.896000000000000157e-03
3.889999999999999795e-03
3.889000000000000096e-03
3.902999999999999785e-03
3.902000000000000086e-03
3.876999999999999804e-03
3.836000000000000000e-03
3.830000000000000071e-03
3.857000000000000185e-03
3.844999999999999894e-03
3.811999999999999850e-03
3.782000000000000205e-03
3.762000000000000153e-03
3.749999999999999861e-03
3.743999999999999932e-03
3.730999999999999941e-03
3.687999999999999872e-03
3.667000000000000121e-03
3.671999999999999917e-03
3.677000000000000147e-03
3.684000000000000209e-03
3.655999999999999962e-03
3.644000000000000104e-03
3.654000000000000130e-03
3.664999999999999855e-03
3.650000000000000033e-03
3.625999999999999883e-03
3.614000000000000025e-03
3.637000000000000042e-03
3.664000000000000156e-03
3.648000000000000201e-03
3.608999999999999795e-03
3.614000000000000025e-03
3.644000000000000104e-03
3.652999999999999997e-03
3.641999999999999838e-03
3.635000000000000210e-03
3.618000000000000122e-03
3.635000000000000210e-03
3.667999999999999820e-03
3.665999999999999988e-03
3.651000000000000165e-03
3.619999999999999954e-03
3.641999999999999838e-03
3.654999999999999829e-03
3.640000000000000006e-03
3.644000000000000104e-03
3.638000000000000175e-03
3.641999999999999838e-03
3.642999999999999971e-03
3.642999999999999971e-03
3.635999999999999909e-03
3.618999999999999821e-03
3.631000000000000113e-03
3.651000000000000165e-03
3.651999999999999864e-03
3.647000000000000068e-03
3.621999999999999786e-03
3.635999999999999909e-03
3.661000000000000192e-03
3.650000000000000033e-03
3.616999999999999989e-03
3.618000000000000122e-03
3.650000000000000033e-03
3.667000000000000121e-03
3.648999999999999900e-03
3.618000000000000122e-03
3.624000000000000051e-03
3.644999999999999803e-03
3.664000000000000156e-03
3.655999999999999962e-03
3.614000000000000025e-03
3.611000000000000060e-03
3.635999999999999909e-03
3.648999999999999900e-03
3.650000000000000033e-03
3.615000000000000158e-03
3.596999999999999937e-03
3.618999999999999821e-03
3.635999999999999909e-03
3.647000000000000068e-03
3.628000000000000148e-03
3.614000000000000025e-03
3.628000000000000148e-03
3.657999999999999793e-03
3.627000000000000016e-03
3.599999999999999901e-03
3.612999999999999892e-03
3.621999999999999786e-03
3.647000000000000068e-03
3.648000000000000201e-03
3.625999999999999883e-03
3.619999999999999954e-03
3.632999999999999945e-03
3.640000000000000006e-03
3.625999999999999883e-03
3.616999999999999989e-03
3.611000000000000060e-03
3.635999999999999909e-03
3.648999999999999900e-03
3.606999999999999963e-03
3.593999999999999972e-03
3.611000000000000060e-03
3.628999999999999847e-03
3.651999999999999864e-03
3.628000000000000148e-03
3.593999999999999972e-03
3.591000000000000008e-03
3.615999999999999857e-03
3.644999999999999803e-03
3.640000000000000006e-03
3.615000000000000158e-03
3.627000000000000016e-03
3.640000000000000006e-03
3.641000000000000139e-03
3.618999999999999821e-03
3.612000000000000193e-03
3.596999999999999937e-03
3.621999999999999786e-03
3.647000000000000068e-03
3.627000000000000016e-03
3.595999999999999804e-03
3.582999999999999814e-03
3.612000000000000193e-03
3.648999999999999900e-03
3.647000000000000068e-03
3.614000000000000025e-03
3.615999999999999857e-03
3.627000000000000016e-03
3.631999999999999812e-03
3.631999999999999812e-03
3.621999999999999786e-03
3.615999999999999857e-03
3.631999999999999812e-03
3.635999999999999909e-03
3.627000000000000016e-03
3.605999999999999830e-03
3.599999999999999901e-03
3.599000000000000202e-03
3.625000000000000184e-03
3.628999999999999847e-03
3.606999999999999963e-03
3.601000000000000034e-03
3.611000000000000060e-03
3.625000000000000184e-03
3.624000000000000051e-03
3.616999999999999989e-03
3.609999999999999928e-03
3.629999999999999980e-03
3.631000000000000113e-03
3.625000000000000184e-03
3.605000000000000131e-03
3.605000000000000131e-03
3.616999999999999989e-03
3.637000000000000042e-03
3.609999999999999928e-03
3.595999999999999804e-03
3.619999999999999954e-03
3.629999999999999980e-03
3.654000000000000130e-03
3.644999999999999803e-03
3.619999999999999954e-03
3.622999999999999918e-03
3.665999999999999988e-03
3.670999999999999784e-03
3.638000000000000175e-03
3.615000000000000158e-03
3.627000000000000016e-03
3.670999999999999784e-03
3.706999999999999792e-03
3.680999999999999810e-03
3.664999999999999855e-03
3.678999999999999979e-03
3.706000000000000093e-03
3.700000000000000164e-03
3.667000000000000121e-03
3.624000000000000051e-03
3.612000000000000193e-03
3.619999999999999954e-03
3.635999999999999909e-03
3.624000000000000051e-03
3.586000000000000212e-03
3.589000000000000176e-03
3.599000000000000202e-03
3.634000000000000077e-03
3.608999999999999795e-03
3.583999999999999946e-03
3.598000000000000070e-03
3.625000000000000184e-03
3.627000000000000016e-03
3.608999999999999795e-03
3.588000000000000043e-03
3.579000000000000150e-03
3.589000000000000176e-03
3.619999999999999954e-03
3.615999999999999857e-03
3.586000000000000212e-03
3.595999999999999804e-03
3.632999999999999945e-03
3.684000000000000209e-03
3.689000000000000005e-03
3.742999999999999799e-03
3.880999999999999901e-03
3.989000000000000358e-03
4.034000000000000259e-03
3.977999999999999765e-03
3.820000000000000045e-03
3.732000000000000074e-03
3.714999999999999986e-03
3.569999999999999823e-03
3.419999999999999863e-03
3.409999999999999837e-03
3.488999999999999914e-03
3.570999999999999956e-03
3.618000000000000122e-03
3.628000000000000148e-03
3.622999999999999918e-03
3.621999999999999786e-03
3.621999999999999786e-03
3.631999999999999812e-03
3.638999999999999874e-03
3.625000000000000184e-03
3.638999999999999874e-03
3.647000000000000068e-03
3.650000000000000033e-03
3.654000000000000130e-03
3.638000000000000175e-03
3.615999999999999857e-03
3.638000000000000175e-03
3.660000000000000059e-03
3.655999999999999962e-03
3.621000000000000087e-03
3.618000000000000122e-03
3.667999999999999820e-03
3.699000000000000031e-03
3.690999999999999837e-03
3.644999999999999803e-03
3.632999999999999945e-03
3.664999999999999855e-03
3.696000000000000067e-03
3.697999999999999898e-03
3.673000000000000050e-03
3.651000000000000165e-03
3.671999999999999917e-03
3.690999999999999837e-03
3.693999999999999801e-03
3.676000000000000014e-03
3.661000000000000192e-03
3.689000000000000005e-03
3.714999999999999986e-03
3.699000000000000031e-03
3.700000000000000164e-03
3.696000000000000067e-03
3.691999999999999969e-03
3.726999999999999844e-03
3.736999999999999870e-03
3.732000000000000074e-03
3.733000000000000207e-03
3.749000000000000162e-03
3.755000000000000091e-03
3.755999999999999790e-03
3.745000000000000065e-03
3.752000000000000127e-03
3.765999999999999816e-03
3.792999999999999931e-03
3.775000000000000144e-03
3.778999999999999807e-03
3.805999999999999921e-03
3.840000000000000097e-03
3.850999999999999823e-03
3.847000000000000159e-03
3.825999999999999974e-03
3.840000000000000097e-03
3.851999999999999955e-03
3.886999999999999830e-03
3.864999999999999946e-03
3.836000000000000000e-03
3.863000000000000114e-03
3.902999999999999785e-03
3.905000000000000051e-03
3.887999999999999963e-03
3.870999999999999875e-03
3.876000000000000105e-03
3.880000000000000202e-03
3.863000000000000114e-03
3.843000000000000062e-03
3.821000000000000178e-03
3.818999999999999912e-03
3.821000000000000178e-03
3.821999999999999877e-03
3.785999999999999869e-03
3.738000000000000003e-03
3.709000000000000057e-03
3.710999999999999889e-03
3.712000000000000022e-03
3.674000000000000182e-03
3.651999999999999864e-03
3.629999999999999980e-03
3.661000000000000192e-03
3.664999999999999855e-03
3.634000000000000077e-03
3.614000000000000025e-03
3.611000000000000060e-03
3.641000000000000139e-03
3.641999999999999838e-03
3.618000000000000122e-03
3.602999999999999866e-03
3.602999999999999866e-03
3.642999999999999971e-03
3.660000000000000059e-03
3.632999999999999945e-03
3.599000000000000202e-03
3.612000000000000193e-03
3.638000000000000175e-03
3.640000000000000006e-03
3.631000000000000113e-03
3.622999999999999918e-03
3.596999999999999937e-03
3.618000000000000122e-03
3.648999999999999900e-03
3.635000000000000210e-03
3.611000000000000060e-03
3.602000000000000167e-03
3.634000000000000077e-03
3.644000000000000104e-03
3.628999999999999847e-03
3.608999999999999795e-03
3.614000000000000025e-03
3.644000000000000104e-03
3.651999999999999864e-03
3.625999999999999883e-03
3.595999999999999804e-03
3.608000000000000096e-03
3.616999999999999989e-03
3.624000000000000051e-03
3.618000000000000122e-03
3.608000000000000096e-03
3.595000000000000105e-03
3.631000000000000113e-03
3.648999999999999900e-03
3.635999999999999909e-03
3.618000000000000122e-03
3.621000000000000087e-03
3.652999999999999997e-03
3.644999999999999803e-03
3.611000000000000060e-03
3.588000000000000043e-03
3.598000000000000070e-03
3.644999999999999803e-03
3.641000000000000139e-03
3.616999999999999989e-03
3.601000000000000034e-03
3.592999999999999840e-03
3.627000000000000016e-03
3.632999999999999945e-03
3.629999999999999980e-03
3.615999999999999857e-03
3.602999999999999866e-03
3.621000000000000087e-03
3.611000000000000060e-03
3.591000000000000008e-03
3.586999999999999911e-03
3.618999999999999821e-03
3.624000000000000051e-03
3.631000000000000113e-03
3.611000000000000060e-03
3.602999999999999866e-03
3.614000000000000025e-03
3.608999999999999795e-03
3.627000000000000016e-03
3.602000000000000167e-03
3.576999999999999885e-03
3.565000000000000027e-03
3.612000000000000193e-03
3.648999999999999900e-03
3.624000000000000051e-03
3.595000000000000105e-03
3.612000000000000193e-03
3.627000000000000016e-03
3.625000000000000184e-03
3.599999999999999901e-03
3.591000000000000008e-03
3.586999999999999911e-03
3.616999999999999989e-03
3.634000000000000077e-03
3.625999999999999883e-03
3.602000000000000167e-03
3.608999999999999795e-03
3.618999999999999821e-03
3.612999999999999892e-03
3.596999999999999937e-03
3.595999999999999804e-03
3.619999999999999954e-03
3.627000000000000016e-03
3.595000000000000105e-03
3.586000000000000212e-03
3.609999999999999928e-03
3.605999999999999830e-03
3.618000000000000122e-03
3.621999999999999786e-03
3.608999999999999795e-03
3.589999999999999875e-03
3.583999999999999946e-03
3.612999999999999892e-03
3.625999999999999883e-03
3.605999999999999830e-03
3.569000000000000124e-03
3.578000000000000017e-03
3.618000000000000122e-03
3.629999999999999980e-03
3.625999999999999883e-03
3.615000000000000158e-03
3.595999999999999804e-03
3.609999999999999928e-03
3.638999999999999874e-03
3.599999999999999901e-03
3.576999999999999885e-03
3.605999999999999830e-03
3.625999999999999883e-03
3.625000000000000184e-03
3.618000000000000122e-03
3.589999999999999875e-03
3.599999999999999901e-03
3.618000000000000122e-03
3.627000000000000016e-03
3.616999999999999989e-03
3.612999999999999892e-03
3.657999999999999793e-03
3.651000000000000165e-03
3.645999999999999935e-03
3.641999999999999838e-03
3.628000000000000148e-03
3.625000000000000184e-03
3.650000000000000033e-03
3.674999999999999881e-03
3.657000000000000094e-03
3.651999999999999864e-03
3.670999999999999784e-03
3.677000000000000147e-03
3.674999999999999881e-03
3.650000000000000033e-03
3.601000000000000034e-03
3.608000000000000096e-03
3.618000000000000122e-03
3.614000000000000025e-03
3.589000000000000176e-03
3.576999999999999885e-03
3.606999999999999963e-03
3.611000000000000060e-03
3.621000000000000087e-03
3.608999999999999795e-03
3.546999999999999806e-03
3.573999999999999920e-03
3.618000000000000122e-03
3.627000000000000016e-03
3.603999999999999999e-03
3.589999999999999875e-03
3.595999999999999804e-03
3.609999999999999928e-03
3.608000000000000096e-03
3.618999999999999821e-03
3.589000000000000176e-03
3.589000000000000176e-03
3.645999999999999935e-03
3.684000000000000209e-03
3.650000000000000033e-03
3.703999999999999827e-03
3.834999999999999867e-03
3.946999999999999988e-03
3.991999999999999889e-03
3.933999999999999997e-03
3.736999999999999870e-03
3.602999999999999866e-03
3.556000000000000133e-03
3.461999999999999800e-03
3.350999999999999812e-03
3.357999999999999874e-03
3.465999999999999897e-03
3.533000000000000116e-03
3.596999999999999937e-03
3.602999999999999866e-03
3.614000000000000025e-03
3.629999999999999980e-03
3.644999999999999803e-03
3.658999999999999926e-03
3.657000000000000094e-03
3.616999999999999989e-03
3.628000000000000148e-03
3.660000000000000059e-03
3.670999999999999784e-03
3.637000000000000042e-03
3.634000000000000077e-03
3.651000000000000165e-03
3.668999999999999952e-03
3.676000000000000014e-03
3.648000000000000201e-03
3.608999999999999795e-03
3.621999999999999786e-03
3.648999999999999900e-03
3.665999999999999988e-03
3.664000000000000156e-03
3.635999999999999909e-03
3.651000000000000165e-03
3.684000000000000209e-03
3.689000000000000005e-03
3.648999999999999900e-03
3.625999999999999883e-03
3.645999999999999935e-03
3.689000000000000005e-03
3.683000000000000076e-03
3.671999999999999917e-03
3.690999999999999837e-03
3.706000000000000093e-03
3.725000000000000012e-03
3.716000000000000119e-03
3.701999999999999996e-03
3.686000000000000040e-03
3.693999999999999801e-03
3.732000000000000074e-03
3.736999999999999870e-03
3.719000000000000083e-03
3.697000000000000199e-03
3.712000000000000022e-03
3.745000000000000065e-03
3.768000000000000082e-03
3.769999999999999914e-03
3.730999999999999941e-03
3.752000000000000127e-03
3.791999999999999798e-03
3.789999999999999966e-03
3.795000000000000196e-03
3.785000000000000170e-03
3.785000000000000170e-03
3.827000000000000107e-03
3.857999999999999884e-03
3.834999999999999867e-03
3.814999999999999815e-03
3.812999999999999983e-03
3.857000000000000185e-03
3.892000000000000060e-03
3.850999999999999823e-03
3.834000000000000168e-03
3.838999999999999965e-03
3.869000000000000043e-03
3.873000000000000140e-03
3.840999999999999796e-03
3.831000000000000204e-03
3.853000000000000088e-03
3.860000000000000150e-03
3.853999999999999787e-03
3.821000000000000178e-03
3.787000000000000002e-03
3.811000000000000151e-03
3.811000000000000151e-03
3.789999999999999966e-03
3.749000000000000162e-03
3.722000000000000048e-03
3.730999999999999941e-03
3.730999999999999941e-03
3.704999999999999960e-03
3.686000000000000040e-03
3.677000000000000147e-03
3.677000000000000147e-03
3.673000000000000050e-03
3.642999999999999971e-03
3.642999999999999971e-03
3.640000000000000006e-03
3.660000000000000059e-03
3.661999999999999891e-03
3.660000000000000059e-03
3.628000000000000148e-03
3.632999999999999945e-03
3.648000000000000201e-03
3.657999999999999793e-03
3.658999999999999926e-03
3.627000000000000016e-03
3.612999999999999892e-03
3.625999999999999883e-03
3.637000000000000042e-03
3.648999999999999900e-03
3.644999999999999803e-03
3.635999999999999909e-03
3.642999999999999971e-03
3.650000000000000033e-03
3.654999999999999829e-03
3.632999999999999945e-03
3.631000000000000113e-03
3.628000000000000148e-03
3.664999999999999855e-03
3.684999999999999908e-03
3.647000000000000068e-03
3.645999999999999935e-03
3.674999999999999881e-03
3.655999999999999962e-03
3.635999999999999909e-03
3.615000000000000158e-03
3.612999999999999892e-03
3.635999999999999909e-03
3.657000000000000094e-03
3.674999999999999881e-03
3.661000000000000192e-03
3.648000000000000201e-03
3.648000000000000201e-03
3.654000000000000130e-03
3.647000000000000068e-03
3.628999999999999847e-03
3.641999999999999838e-03
3.637000000000000042e-03
3.638000000000000175e-03
3.621999999999999786e-03
3.621999999999999786e-03
3.627000000000000016e-03
3.638999999999999874e-03
3.664000000000000156e-03
3.651000000000000165e-03
3.611000000000000060e-03
3.618999999999999821e-03
3.644999999999999803e-03
3.667000000000000121e-03
3.651000000000000165e-03
3.621999999999999786e-03
3.596999999999999937e-03
3.615000000000000158e-03
3.651999999999999864e-03
3.624000000000000051e-03
3.608000000000000096e-03
3.627000000000000016e-03
3.654000000000000130e-03
3.661999999999999891e-03
3.654000000000000130e-03
3.634000000000000077e-03
3.592999999999999840e-03
3.609999999999999928e-03
3.661999999999999891e-03
3.651000000000000165e-03
3.638999999999999874e-03
3.638999999999999874e-03
3.622999999999999918e-03
3.634000000000000077e-03
3.641000000000000139e-03
3.615000000000000158e-03
3.612000000000000193e-03
3.642999999999999971e-03
3.667000000000000121e-03
3.664999999999999855e-03
3.641999999999999838e-03
3.622999999999999918e-03
3.635000000000000210e-03
3.657000000000000094e-03
3.648000000000000201e-03
3.622999999999999918e-03
3.616999999999999989e-03
3.622999999999999918e-03
3.650000000000000033e-03
3.667000000000000121e-03
3.637000000000000042e-03
3.615000000000000158e-03
3.618999999999999821e-03
3.657999999999999793e-03
3.661999999999999891e-03
3.628000000000000148e-03
3.638999999999999874e-03
3.670000000000000085e-03
3.647000000000000068e-03
3.654000000000000130e-03
3.637000000000000042e-03
3.634000000000000077e-03
3.642999999999999971e-03
3.667000000000000121e-03
3.667999999999999820e-03
3.671999999999999917e-03
3.674000000000000182e-03
3.680000000000000111e-03
3.665999999999999988e-03
3.655999999999999962e-03
3.647000000000000068e-03
3.664000000000000156e-03
3.664000000000000156e-03
3.696000000000000067e-03
3.713000000000000154e-03
3.707999999999999925e-03
3.693000000000000102e-03
3.707999999999999925e-03
3.704999999999999960e-03
3.673000000000000050e-03
3.618999999999999821e-03
3.595999999999999804e-03
3.635000000000000210e-03
3.674999999999999881e-03
3.677999999999999846e-03
3.637000000000000042e-03
3.605000000000000131e-03
3.608999999999999795e-03
3.641999999999999838e-03
3.635999999999999909e-03
3.592999999999999840e-03
3.580999999999999982e-03
3.608000000000000096e-03
3.655999999999999962e-03
3.665999999999999988e-03
3.628999999999999847e-03
3.632999999999999945e-03
3.632999999999999945e-03
3.634000000000000077e-03
3.628999999999999847e-03
3.608000000000000096e-03
3.602999999999999866e-03
3.640000000000000006e-03
3.683000000000000076e-03
3.723999999999999880e-03
3.808000000000000187e-03
3.884999999999999998e-03
3.952999999999999917e-03
3.980000000000000031e-03
3.856000000000000053e-03
3.677000000000000147e-03
3.592000000000000141e-03
3.536000000000000081e-03
3.484999999999999817e-03
3.429000000000000190e-03
3.497999999999999807e-03
3.546999999999999806e-03
3.609999999999999928e-03
3.654000000000000130e-03
3.658999999999999926e-03
3.658999999999999926e-03
3.651999999999999864e-03
3.663000000000000023e-03
3.676000000000000014e-03
3.671999999999999917e-03
3.671999999999999917e-03
3.665999999999999988e-03
3.686000000000000040e-03
3.701999999999999996e-03
3.689000000000000005e-03
3.673000000000000050e-03
3.664000000000000156e-03
3.680999999999999810e-03
3.709000000000000057e-03
3.704999999999999960e-03
3.687000000000000173e-03
3.677000000000000147e-03
3.704999999999999960e-03
3.691999999999999969e-03
3.687999999999999872e-03
3.687000000000000173e-03
3.700000000000000164e-03
3.716999999999999818e-03
3.722000000000000048e-03
3.700000000000000164e-03
3.694999999999999934e-03
3.703999999999999827e-03
3.716000000000000119e-03
3.746000000000000198e-03
3.750999999999999994e-03
3.730999999999999941e-03
3.713999999999999854e-03
3.742000000000000100e-03
3.752000000000000127e-03
3.733000000000000207e-03
3.723000000000000181e-03
3.723999999999999880e-03
3.745000000000000065e-03
3.789999999999999966e-03
3.797000000000000028e-03
3.781000000000000073e-03
3.756999999999999923e-03
3.761000000000000020e-03
3.775999999999999843e-03
3.772999999999999878e-03
3.798999999999999860e-03
3.815999999999999948e-03
3.827000000000000107e-03
3.827999999999999806e-03
3.833000000000000036e-03
3.847000000000000159e-03
3.821999999999999877e-03
3.830000000000000071e-03
3.863000000000000114e-03
3.876999999999999804e-03
3.859000000000000017e-03
3.848999999999999991e-03
3.884999999999999998e-03
3.913999999999999944e-03
3.883999999999999866e-03
3.863000000000000114e-03
3.863999999999999813e-03
3.916000000000000210e-03
3.919999999999999873e-03
3.899999999999999821e-03
3.892000000000000060e-03
3.864999999999999946e-03
3.870000000000000176e-03
3.876999999999999804e-03
3.851999999999999955e-03
3.831999999999999903e-03
3.831000000000000204e-03
3.810000000000000019e-03
3.798999999999999860e-03
3.775000000000000144e-03
3.742999999999999799e-03
3.732000000000000074e-03
3.759000000000000188e-03
3.752999999999999826e-03
3.709000000000000057e-03
3.676000000000000014e-03
3.668999999999999952e-03
3.694999999999999934e-03
3.720000000000000216e-03
3.697000000000000199e-03
3.661999999999999891e-03
3.651999999999999864e-03
3.696000000000000067e-03
3.703000000000000128e-03
3.680999999999999810e-03
3.667000000000000121e-03
3.667999999999999820e-03
3.680999999999999810e-03
3.691999999999999969e-03
3.680000000000000111e-03
3.665999999999999988e-03
3.663000000000000023e-03
3.677000000000000147e-03
3.709000000000000057e-03
3.686000000000000040e-03
3.670000000000000085e-03
3.664000000000000156e-03
3.687000000000000173e-03
3.706999999999999792e-03
3.687999999999999872e-03
3.661999999999999891e-03
3.670000000000000085e-03
3.684999999999999908e-03
3.713000000000000154e-03
3.691999999999999969e-03
3.684000000000000209e-03
3.696000000000000067e-03
3.690000000000000138e-03
3.703999999999999827e-03
3.687999999999999872e-03
3.670000000000000085e-03
3.673000000000000050e-03
3.674999999999999881e-03
3.697999999999999898e-03
3.699000000000000031e-03
3.674000000000000182e-03
3.670000000000000085e-03
3.687000000000000173e-03
3.701999999999999996e-03
3.676000000000000014e-03
3.651000000000000165e-03
3.648999999999999900e-03
3.687000000000000173e-03
3.699000000000000031e-03
3.714999999999999986e-03
3.696000000000000067e-03
3.681999999999999943e-03
3.680000000000000111e-03
3.677999999999999846e-03
3.686000000000000040e-03
3.665999999999999988e-03
3.663000000000000023e-03
3.658999999999999926e-03
3.667999999999999820e-03
3.670999999999999784e-03
3.677000000000000147e-03
3.668999999999999952e-03
3.678999999999999979e-03
3.678999999999999979e-03
3.674000000000000182e-03
3.664999999999999855e-03
3.654999999999999829e-03
3.674000000000000182e-03
3.677999999999999846e-03
3.680000000000000111e-03
3.674000000000000182e-03
3.667000000000000121e-03
3.671999999999999917e-03
3.676000000000000014e-03
3.644000000000000104e-03
3.634000000000000077e-03
3.651999999999999864e-03
3.674999999999999881e-03
3.683000000000000076e-03
3.687000000000000173e-03
3.670999999999999784e-03
3.670999999999999784e-03
3.676000000000000014e-03
3.667000000000000121e-03
3.668999999999999952e-03
3.661999999999999891e-03
3.652999999999999997e-03
3.654999999999999829e-03
3.678999999999999979e-03
3.658999999999999926e-03
3.627000000000000016e-03
3.645999999999999935e-03
3.694999999999999934e-03
3.706000000000000093e-03
3.690999999999999837e-03
3.655999999999999962e-03
3.625999999999999883e-03
3.644999999999999803e-03
3.683000000000000076e-03
3.687999999999999872e-03
3.670000000000000085e-03
3.664999999999999855e-03
3.712000000000000022e-03
3.719000000000000083e-03
3.680999999999999810e-03
3.655999999999999962e-03
3.680999999999999810e-03
3.697999999999999898e-03
3.703000000000000128e-03
3.689000000000000005e-03
3.658999999999999926e-03
3.635999999999999909e-03
3.686000000000000040e-03
3.750999999999999994e-03
3.752000000000000127e-03
3.706000000000000093e-03
3.693000000000000102e-03
3.709000000000000057e-03
3.729000000000000110e-03
3.720999999999999915e-03
3.674000000000000182e-03
3.645999999999999935e-03
3.670000000000000085e-03
3.690000000000000138e-03
3.644999999999999803e-03
3.608999999999999795e-03
3.631000000000000113e-03
3.657999999999999793e-03
3.671999999999999917e-03
3.658999999999999926e-03
3.631999999999999812e-03
3.631999999999999812e-03
3.664999999999999855e-03
3.670999999999999784e-03
3.651000000000000165e-03
3.625000000000000184e-03
3.615000000000000158e-03
3.635000000000000210e-03
3.652999999999999997e-03
3.635999999999999909e-03
3.621000000000000087e-03
3.619999999999999954e-03
3.670999999999999784e-03
3.700999999999999863e-03
3.772000000000000179e-03
3.873999999999999840e-03
3.935000000000000130e-03
3.996000000000000420e-03
3.967000000000000040e-03
3.848999999999999991e-03
3.743999999999999932e-03
3.700999999999999863e-03
3.606999999999999963e-03
3.506000000000000002e-03
3.488999999999999914e-03
3.543999999999999841e-03
3.585000000000000079e-03
3.608000000000000096e-03
3.634000000000000077e-03
3.664999999999999855e-03
3.648000000000000201e-03
3.647000000000000068e-03
3.681999999999999943e-03
3.677999999999999846e-03
3.651000000000000165e-03
3.651999999999999864e-03
3.667999999999999820e-03
3.678999999999999979e-03
3.670999999999999784e-03
3.661999999999999891e-03
3.655999999999999962e-03
3.661000000000000192e-03
3.657999999999999793e-03
3.668999999999999952e-03
3.670000000000000085e-03
3.657000000000000094e-03
3.673000000000000050e-03
3.693999999999999801e-03
3.680000000000000111e-03
3.657999999999999793e-03
3.650000000000000033e-03
3.693999999999999801e-03
3.720000000000000216e-03
3.725000000000000012e-03
3.716000000000000119e-03
3.670000000000000085e-03
3.657000000000000094e-03
3.687000000000000173e-03
3.704999999999999960e-03
3.693999999999999801e-03
3.693000000000000102e-03
3.696000000000000067e-03
3.709000000000000057e-03
3.726000000000000145e-03
3.742000000000000100e-03
3.727999999999999977e-03
3.701999999999999996e-03
3.706999999999999792e-03
3.743999999999999932e-03
3.756999999999999923e-03
3.762999999999999852e-03
3.758000000000000056e-03
3.769000000000000215e-03
3.765999999999999816e-03
3.766999999999999949e-03
3.761000000000000020e-03
3.768000000000000082e-03
3.801000000000000125e-03
3.825999999999999974e-03
3.831999999999999903e-03
3.807000000000000054e-03
3.802999999999999957e-03
3.821000000000000178e-03
3.838999999999999965e-03
3.860999999999999849e-03
3.863000000000000114e-03
3.850000000000000124e-03
3.860999999999999849e-03
3.873999999999999840e-03
3.876999999999999804e-03
3.857999999999999884e-03
3.870999999999999875e-03
3.882000000000000034e-03
3.886000000000000131e-03
3.884999999999999998e-03
3.883000000000000167e-03
3.867000000000000211e-03
3.861999999999999982e-03
3.844000000000000195e-03
3.834999999999999867e-03
3.791000000000000099e-03
3.782000000000000205e-03
3.769000000000000215e-03
3.768000000000000082e-03
3.748000000000000029e-03
3.720000000000000216e-03
3.717999999999999951e-03
3.706999999999999792e-03
3.703000000000000128e-03
3.665999999999999988e-03
3.638000000000000175e-03
3.635000000000000210e-03
3.668999999999999952e-03
3.687999999999999872e-03
3.650000000000000033e-03
3.631000000000000113e-03
3.645999999999999935e-03
3.665999999999999988e-03
3.667999999999999820e-03
3.652999999999999997e-03
3.619999999999999954e-03
3.618000000000000122e-03
3.651000000000000165e-03
3.631999999999999812e-03
3.609999999999999928e-03
3.616999999999999989e-03
3.642999999999999971e-03
3.658999999999999926e-03
3.650000000000000033e-03
3.627000000000000016e-03
3.625999999999999883e-03
3.628000000000000148e-03
3.631999999999999812e-03
3.647000000000000068e-03
3.644000000000000104e-03
3.625000000000000184e-03
3.635000000000000210e-03
3.667000000000000121e-03
3.664999999999999855e-03
3.619999999999999954e-03
3.582000000000000114e-03
3.612000000000000193e-03
3.667000000000000121e-03
3.671999999999999917e-03
3.641000000000000139e-03
3.625000000000000184e-03
3.618000000000000122e-03
3.634000000000000077e-03
3.658999999999999926e-03
3.645999999999999935e-03
3.625000000000000184e-03
3.618999999999999821e-03
3.629999999999999980e-03
3.635999999999999909e-03
3.618000000000000122e-03
3.602000000000000167e-03
3.614000000000000025e-03
3.638999999999999874e-03
3.640000000000000006e-03
3.618000000000000122e-03
3.592999999999999840e-03
3.595999999999999804e-03
3.635999999999999909e-03
3.632999999999999945e-03
3.621999999999999786e-03
3.624000000000000051e-03
3.642999999999999971e-03
3.641999999999999838e-03
3.631999999999999812e-03
3.598000000000000070e-03
3.605000000000000131e-03
3.614000000000000025e-03
3.629999999999999980e-03
3.642999999999999971e-03
3.612000000000000193e-03
3.583999999999999946e-03
3.601000000000000034e-03
3.628999999999999847e-03
3.632999999999999945e-03
3.611000000000000060e-03
3.592999999999999840e-03
3.605000000000000131e-03
3.612999999999999892e-03
3.611000000000000060e-03
3.609999999999999928e-03
3.589000000000000176e-03
3.589000000000000176e-03
3.621999999999999786e-03
3.629999999999999980e-03
3.588000000000000043e-03
3.578000000000000017e-03
3.595999999999999804e-03
3.644000000000000104e-03
3.637000000000000042e-03
3.602000000000000167e-03
3.583999999999999946e-03
3.592000000000000141e-03
3.618000000000000122e-03
3.621000000000000087e-03
3.606999999999999963e-03
3.602000000000000167e-03
3.598000000000000070e-03
3.599999999999999901e-03
3.605999999999999830e-03
3.579000000000000150e-03
3.569000000000000124e-03
3.591000000000000008e-03
3.624000000000000051e-03
3.621999999999999786e-03
3.609999999999999928e-03
3.589999999999999875e-03
3.598000000000000070e-03
3.641999999999999838e-03
3.635999999999999909e-03
3.608999999999999795e-03
3.592999999999999840e-03
3.570999999999999956e-03
3.592999999999999840e-03
3.595999999999999804e-03
3.579999999999999849e-03
3.579000000000000150e-03
3.598000000000000070e-03
3.615999999999999857e-03
3.631999999999999812e-03
3.582000000000000114e-03
3.553000000000000169e-03
3.579999999999999849e-03
3.605999999999999830e-03
3.622999999999999918e-03
3.615000000000000158e-03
3.566999999999999858e-03
3.592999999999999840e-03
3.667999999999999820e-03
3.670999999999999784e-03
3.640000000000000006e-03
3.621000000000000087e-03
3.615999999999999857e-03
3.625999999999999883e-03
3.632999999999999945e-03
3.628999999999999847e-03
3.628999999999999847e-03
3.638999999999999874e-03
3.671999999999999917e-03
3.686000000000000040e-03
3.670999999999999784e-03
3.628999999999999847e-03
3.625000000000000184e-03
3.634000000000000077e-03
3.602999999999999866e-03
3.546999999999999806e-03
3.556999999999999832e-03
3.615999999999999857e-03
3.631000000000000113e-03
3.599000000000000202e-03
3.576999999999999885e-03
3.560999999999999929e-03
3.572999999999999787e-03
3.585000000000000079e-03
3.579000000000000150e-03
3.578000000000000017e-03
3.582999999999999814e-03
3.588000000000000043e-03
3.602000000000000167e-03
3.602999999999999866e-03
3.585000000000000079e-03
3.560999999999999929e-03
3.579000000000000150e-03
3.586999999999999911e-03
3.605000000000000131e-03
3.640000000000000006e-03
3.670999999999999784e-03
3.771000000000000046e-03
3.917000000000000343e-03
3.963999999999999642e-03
3.969000000000000306e-03
3.913999999999999944e-03
3.824000000000000142e-03
3.746999999999999897e-03
3.670000000000000085e-03
3.491000000000000179e-03
3.393999999999999882e-03
3.455000000000000172e-03
3.530999999999999851e-03
3.547999999999999939e-03
3.576000000000000185e-03
3.601000000000000034e-03
3.621999999999999786e-03
3.652999999999999997e-03
3.640000000000000006e-03
3.605000000000000131e-03
3.595999999999999804e-03
3.608000000000000096e-03
3.625000000000000184e-03
3.612000000000000193e-03
3.589000000000000176e-03
3.595000000000000105e-03
3.608999999999999795e-03
3.634000000000000077e-03
3.651999999999999864e-03
3.629999999999999980e-03
3.605000000000000131e-03
3.612000000000000193e-03
3.645999999999999935e-03
3.650000000000000033e-03
3.608000000000000096e-03
3.608000000000000096e-03
3.638000000000000175e-03
3.657999999999999793e-03
3.667000000000000121e-03
3.638000000000000175e-03
3.628999999999999847e-03
3.628999999999999847e-03
3.647000000000000068e-03
3.657000000000000094e-03
3.660000000000000059e-03
3.651000000000000165e-03
3.651999999999999864e-03
3.651000000000000165e-03
3.670999999999999784e-03
3.677999999999999846e-03
3.670000000000000085e-03
3.661999999999999891e-03
3.674999999999999881e-03
3.697000000000000199e-03
3.689000000000000005e-03
3.678999999999999979e-03
3.709000000000000057e-03
3.727999999999999977e-03
3.722000000000000048e-03
3.699000000000000031e-03
3.707999999999999925e-03
3.752000000000000127e-03
3.785000000000000170e-03
3.782999999999999904e-03
3.752000000000000127e-03
3.742000000000000100e-03
3.784000000000000037e-03
3.830000000000000071e-03
3.824999999999999841e-03
3.808000000000000187e-03
3.797000000000000028e-03
3.814000000000000116e-03
3.850000000000000124e-03
3.848999999999999991e-03
3.795000000000000196e-03
3.812999999999999983e-03
3.843000000000000062e-03
3.872000000000000008e-03
3.867000000000000211e-03
3.867000000000000211e-03
3.866000000000000079e-03
3.874999999999999972e-03
3.880999999999999901e-03
3.861999999999999982e-03
3.821000000000000178e-03
3.798999999999999860e-03
3.810000000000000019e-03
3.824000000000000142e-03
3.785999999999999869e-03
3.720000000000000216e-03
3.697000000000000199e-03
3.706999999999999792e-03
3.709000000000000057e-03
3.700000000000000164e-03
3.664999999999999855e-03
3.631000000000000113e-03
3.608000000000000096e-03
3.618000000000000122e-03
3.642999999999999971e-03
3.638999999999999874e-03
3.593999999999999972e-03
3.615999999999999857e-03
3.628000000000000148e-03
3.627000000000000016e-03
3.605999999999999830e-03
3.586999999999999911e-03
3.599000000000000202e-03
3.615999999999999857e-03
3.628999999999999847e-03
3.592999999999999840e-03
3.570999999999999956e-03
3.603999999999999999e-03
3.634000000000000077e-03
3.612999999999999892e-03
3.570999999999999956e-03
3.556000000000000133e-03
3.582000000000000114e-03
3.628000000000000148e-03
3.628000000000000148e-03
3.603999999999999999e-03
3.595000000000000105e-03
3.615999999999999857e-03
3.631000000000000113e-03
3.618000000000000122e-03
3.609999999999999928e-03
3.592000000000000141e-03
3.598000000000000070e-03
3.621999999999999786e-03
3.609999999999999928e-03
3.589000000000000176e-03
3.591000000000000008e-03
3.608000000000000096e-03
3.605999999999999830e-03
3.595999999999999804e-03
3.595999999999999804e-03
3.589999999999999875e-03
3.606999999999999963e-03
3.615999999999999857e-03
3.609999999999999928e-03
3.589000000000000176e-03
3.563000000000000195e-03
3.579000000000000150e-03
3.605999999999999830e-03
3.615000000000000158e-03
3.625000000000000184e-03
3.603999999999999999e-03
3.591000000000000008e-03
3.612000000000000193e-03
3.595999999999999804e-03
3.576999999999999885e-03
3.569999999999999823e-03
3.572999999999999787e-03
3.589000000000000176e-03
3.588000000000000043e-03
3.582999999999999814e-03
3.583999999999999946e-03
3.593999999999999972e-03
3.609999999999999928e-03
3.599000000000000202e-03
3.593999999999999972e-03
3.569999999999999823e-03
3.586000000000000212e-03
3.605000000000000131e-03
3.595000000000000105e-03
3.591000000000000008e-03
3.572999999999999787e-03
3.579999999999999849e-03
3.595999999999999804e-03
3.588000000000000043e-03
3.578000000000000017e-03
3.585000000000000079e-03
3.585000000000000079e-03
3.572999999999999787e-03
3.566000000000000159e-03
3.537999999999999912e-03
3.569999999999999823e-03
3.621000000000000087e-03
3.618999999999999821e-03
3.601000000000000034e-03
3.576000000000000185e-03
3.579999999999999849e-03
3.592000000000000141e-03
3.598000000000000070e-03
3.598000000000000070e-03
3.575000000000000053e-03
3.557999999999999965e-03
3.573999999999999920e-03
3.582000000000000114e-03
3.579000000000000150e-03
3.569000000000000124e-03
3.569999999999999823e-03
3.586999999999999911e-03
3.579999999999999849e-03
3.573999999999999920e-03
3.565000000000000027e-03
3.556000000000000133e-03
3.582000000000000114e-03
3.605999999999999830e-03
3.602000000000000167e-03
3.579999999999999849e-03
3.570999999999999956e-03
3.583999999999999946e-03
3.589000000000000176e-03
3.592000000000000141e-03
3.549000000000000071e-03
3.543000000000000142e-03
3.586999999999999911e-03
3.591000000000000008e-03
3.567999999999999991e-03
3.556000000000000133e-03
3.553999999999999868e-03
3.557999999999999965e-03
3.588000000000000043e-03
3.579999999999999849e-03
3.560999999999999929e-03
3.566000000000000159e-03
3.580999999999999982e-03
3.606999999999999963e-03
3.599000000000000202e-03
3.576999999999999885e-03
3.592999999999999840e-03
3.637000000000000042e-03
3.631999999999999812e-03
3.608000000000000096e-03
3.586000000000000212e-03
3.556000000000000133e-03
3.592000000000000141e-03
3.628999999999999847e-03
3.624000000000000051e-03
3.619999999999999954e-03
3.638000000000000175e-03
3.652999999999999997e-03
3.650000000000000033e-03
3.641999999999999838e-03
3.608000000000000096e-03
3.576999999999999885e-03
3.573999999999999920e-03
3.588000000000000043e-03
3.582999999999999814e-03
3.542000000000000010e-03
3.543999999999999841e-03
3.533999999999999815e-03
3.563999999999999894e-03
3.576999999999999885e-03
3.569000000000000124e-03
3.563000000000000195e-03
3.556000000000000133e-03
3.544999999999999974e-03
3.550000000000000204e-03
3.534999999999999948e-03
3.537999999999999912e-03
3.556000000000000133e-03
3.566000000000000159e-03
3.549000000000000071e-03
3.537999999999999912e-03
3.540999999999999877e-03
3.550999999999999903e-03
3.585000000000000079e-03
3.608000000000000096e-03
3.612999999999999892e-03
3.703999999999999827e-03
3.879000000000000069e-03
3.968000000000000173e-03
3.976999999999999633e-03
3.917999999999999608e-03
3.789999999999999966e-03
3.710000000000000190e-03
3.654999999999999829e-03
3.475999999999999923e-03
3.327000000000000096e-03
3.353000000000000078e-03
3.465999999999999897e-03
3.527999999999999886e-03
3.543999999999999841e-03
3.559000000000000098e-03
3.566999999999999858e-03
3.566000000000000159e-03
3.591000000000000008e-03
3.603999999999999999e-03
3.566999999999999858e-03
3.563000000000000195e-03
3.595999999999999804e-03
3.614000000000000025e-03
3.589999999999999875e-03
3.572999999999999787e-03
3.576999999999999885e-03
3.596999999999999937e-03
3.611000000000000060e-03
3.603999999999999999e-03
3.592999999999999840e-03
3.605999999999999830e-03
3.624000000000000051e-03
3.625999999999999883e-03
3.608000000000000096e-03
3.592999999999999840e-03
3.583999999999999946e-03
3.599000000000000202e-03
3.618999999999999821e-03
3.602999999999999866e-03
3.615000000000000158e-03
3.628000000000000148e-03
3.648000000000000201e-03
3.670000000000000085e-03
3.635999999999999909e-03
3.618000000000000122e-03
3.627000000000000016e-03
3.625999999999999883e-03
3.641999999999999838e-03
3.647000000000000068e-03
3.622999999999999918e-03
3.625999999999999883e-03
3.658999999999999926e-03
3.684999999999999908e-03
3.686000000000000040e-03
3.661000000000000192e-03
3.680999999999999810e-03
3.723999999999999880e-03
3.720999999999999915e-03
3.703000000000000128e-03
3.704999999999999960e-03
3.725000000000000012e-03
3.740999999999999968e-03
3.758000000000000056e-03
3.756999999999999923e-03
3.756999999999999923e-03
3.755999999999999790e-03
3.775999999999999843e-03
3.801000000000000125e-03
3.791999999999999798e-03
3.785000000000000170e-03
3.797000000000000028e-03
3.818999999999999912e-03
3.821000000000000178e-03
3.801000000000000125e-03
3.804000000000000090e-03
3.846000000000000026e-03
3.874999999999999972e-03
3.851999999999999955e-03
3.837999999999999832e-03
3.847000000000000159e-03
3.857999999999999884e-03
3.877999999999999937e-03
3.869000000000000043e-03
3.828999999999999938e-03
3.795000000000000196e-03
3.779999999999999940e-03
3.785000000000000170e-03
3.766999999999999949e-03
3.727999999999999977e-03
3.686000000000000040e-03
3.680999999999999810e-03
3.706999999999999792e-03
3.673000000000000050e-03
3.645999999999999935e-03
3.625999999999999883e-03
3.608000000000000096e-03
3.621000000000000087e-03
3.628999999999999847e-03
3.612000000000000193e-03
3.595999999999999804e-03
3.606999999999999963e-03
3.616999999999999989e-03
3.619999999999999954e-03
3.611000000000000060e-03
3.566000000000000159e-03
3.553000000000000169e-03
3.585000000000000079e-03
3.640000000000000006e-03
3.628000000000000148e-03
3.572999999999999787e-03
3.566999999999999858e-03
3.582999999999999814e-03
3.576999999999999885e-03
3.572000000000000088e-03
3.576000000000000185e-03
3.595999999999999804e-03
3.605000000000000131e-03
3.609999999999999928e-03
3.612000000000000193e-03
3.586000000000000212e-03
3.576999999999999885e-03
3.608999999999999795e-03
3.621000000000000087e-03
3.605000000000000131e-03
3.578000000000000017e-03
3.579000000000000150e-03
3.608999999999999795e-03
3.616999999999999989e-03
3.583999999999999946e-03
3.563000000000000195e-03
3.575000000000000053e-03
3.609999999999999928e-03
3.618999999999999821e-03
3.580999999999999982e-03
3.552000000000000036e-03
3.566000000000000159e-03
3.606999999999999963e-03
3.618000000000000122e-03
3.591000000000000008e-03
3.570999999999999956e-03
3.572999999999999787e-03
3.586000000000000212e-03
3.593999999999999972e-03
3.566999999999999858e-03
3.543999999999999841e-03
3.575000000000000053e-03
3.618000000000000122e-03
3.602999999999999866e-03
3.588000000000000043e-03
3.596999999999999937e-03
3.586999999999999911e-03
3.592999999999999840e-03
3.586000000000000212e-03
3.555000000000000000e-03
3.553999999999999868e-03
3.569000000000000124e-03
3.579999999999999849e-03
3.593999999999999972e-03
3.580999999999999982e-03
3.560999999999999929e-03
3.570999999999999956e-03
3.586000000000000212e-03
3.585000000000000079e-03
3.573999999999999920e-03
3.546999999999999806e-03
3.549000000000000071e-03
3.546999999999999806e-03
3.579999999999999849e-03
3.589000000000000176e-03
3.583999999999999946e-03
3.589999999999999875e-03
3.582000000000000114e-03
3.591000000000000008e-03
3.566999999999999858e-03
3.560999999999999929e-03
3.557999999999999965e-03
3.566999999999999858e-03
3.579000000000000150e-03
3.567999999999999991e-03
3.553000000000000169e-03
3.546000000000000107e-03
3.576999999999999885e-03
3.586000000000000212e-03
3.557999999999999965e-03
3.563000000000000195e-03
3.576999999999999885e-03
3.578000000000000017e-03
3.559999999999999797e-03
3.559999999999999797e-03
3.550999999999999903e-03
3.560999999999999929e-03
3.580999999999999982e-03
3.595000000000000105e-03
3.570999999999999956e-03
3.563000000000000195e-03
3.569000000000000124e-03
3.575000000000000053e-03
3.565000000000000027e-03
3.565000000000000027e-03
3.560999999999999929e-03
3.566000000000000159e-03
3.589999999999999875e-03
3.586000000000000212e-03
3.556000000000000133e-03
3.530000000000000152e-03
3.552000000000000036e-03
3.569000000000000124e-03
3.579999999999999849e-03
3.567999999999999991e-03
3.552000000000000036e-03
3.562000000000000062e-03
3.608000000000000096e-03
3.631999999999999812e-03
3.592999999999999840e-03
3.589000000000000176e-03
3.570999999999999956e-03
3.582000000000000114e-03
3.605000000000000131e-03
3.596999999999999937e-03
3.602000000000000167e-03
3.603999999999999999e-03
3.618000000000000122e-03
3.628000000000000148e-03
3.628999999999999847e-03
3.642999999999999971e-03
3.644000000000000104e-03
3.621999999999999786e-03
3.579000000000000150e-03
3.543999999999999841e-03
3.546999999999999806e-03
3.566000000000000159e-03
3.582000000000000114e-03
3.580999999999999982e-03
3.547999999999999939e-03
3.526000000000000054e-03
3.527000000000000187e-03
3.552000000000000036e-03
3.583999999999999946e-03
3.559000000000000098e-03
3.517000000000000161e-03
3.536000000000000081e-03
3.563000000000000195e-03
3.559000000000000098e-03
3.550000000000000204e-03
3.563999999999999894e-03
3.549000000000000071e-03
3.556999999999999832e-03
3.582000000000000114e-03
3.546999999999999806e-03
3.542000000000000010e-03
3.582999999999999814e-03
3.619999999999999954e-03
3.687999999999999872e-03
3.795999999999999895e-03
3.869000000000000043e-03
3.900999999999999954e-03
3.906000000000000184e-03
3.789999999999999966e-03
3.637000000000000042e-03
3.563000000000000195e-03
3.490000000000000047e-03
3.377999999999999926e-03
3.328999999999999928e-03
3.402000000000000076e-03
3.451000000000000074e-03
3.513000000000000064e-03
3.591000000000000008e-03
3.605000000000000131e-03
3.563999999999999894e-03
3.569999999999999823e-03
3.598000000000000070e-03
3.596999999999999937e-03
3.606999999999999963e-03
3.586000000000000212e-03
3.595999999999999804e-03
3.603999999999999999e-03
3.621999999999999786e-03
3.618999999999999821e-03
3.602000000000000167e-03
3.595999999999999804e-03
3.609999999999999928e-03
3.650000000000000033e-03
3.631999999999999812e-03
3.586000000000000212e-03
3.618000000000000122e-03
3.619999999999999954e-03
3.634000000000000077e-03
3.645999999999999935e-03
3.605999999999999830e-03
3.588000000000000043e-03
3.602000000000000167e-03
3.628000000000000148e-03
3.673000000000000050e-03
3.667999999999999820e-03
3.628999999999999847e-03
3.638999999999999874e-03
3.641000000000000139e-03
3.644000000000000104e-03
3.651000000000000165e-03
3.651999999999999864e-03
3.665999999999999988e-03
3.696000000000000067e-03
3.690999999999999837e-03
3.664000000000000156e-03
3.644000000000000104e-03
3.677999999999999846e-03
3.719000000000000083e-03
3.730999999999999941e-03
3.714999999999999986e-03
3.709000000000000057e-03
3.694999999999999934e-03
3.746000000000000198e-03
3.761000000000000020e-03
3.740999999999999968e-03
3.723000000000000181e-03
3.748000000000000029e-03
3.776999999999999975e-03
3.792999999999999931e-03
3.772000000000000179e-03
3.772000000000000179e-03
3.781000000000000073e-03
3.801999999999999824e-03
3.831000000000000204e-03
3.814000000000000116e-03
3.811000000000000151e-03
3.831999999999999903e-03
3.840999999999999796e-03
3.847999999999999858e-03
3.837000000000000133e-03
3.812999999999999983e-03
3.838999999999999965e-03
3.860999999999999849e-03
3.850000000000000124e-03
3.827000000000000107e-03
3.810000000000000019e-03
3.802999999999999957e-03
3.823000000000000009e-03
3.817000000000000080e-03
3.785999999999999869e-03
3.727999999999999977e-03
3.717999999999999951e-03
3.746999999999999897e-03
3.720999999999999915e-03
3.704999999999999960e-03
3.674999999999999881e-03
3.654000000000000130e-03
3.667999999999999820e-03
3.664000000000000156e-03
3.628999999999999847e-03
3.618000000000000122e-03
3.635000000000000210e-03
3.621000000000000087e-03
3.634000000000000077e-03
3.612999999999999892e-03
3.596999999999999937e-03
3.625000000000000184e-03
3.638000000000000175e-03
3.635000000000000210e-03
3.611000000000000060e-03
3.592000000000000141e-03
3.603999999999999999e-03
3.625999999999999883e-03
3.648000000000000201e-03
3.596999999999999937e-03
3.576000000000000185e-03
3.608000000000000096e-03
3.634000000000000077e-03
3.619999999999999954e-03
3.588000000000000043e-03
3.582000000000000114e-03
3.616999999999999989e-03
3.648000000000000201e-03
3.642999999999999971e-03
3.612000000000000193e-03
3.615000000000000158e-03
3.612999999999999892e-03
3.664999999999999855e-03
3.655999999999999962e-03
3.595999999999999804e-03
3.621999999999999786e-03
3.609999999999999928e-03
3.624000000000000051e-03
3.631999999999999812e-03
3.615000000000000158e-03
3.605000000000000131e-03
3.618999999999999821e-03
3.612000000000000193e-03
3.615999999999999857e-03
3.614000000000000025e-03
3.598000000000000070e-03
3.608999999999999795e-03
3.640000000000000006e-03
3.648000000000000201e-03
3.629999999999999980e-03
3.608999999999999795e-03
3.631000000000000113e-03
3.625000000000000184e-03
3.611000000000000060e-03
3.622999999999999918e-03
3.599000000000000202e-03
3.595000000000000105e-03
3.631999999999999812e-03
3.638999999999999874e-03
3.599000000000000202e-03
3.575000000000000053e-03
3.602999999999999866e-03
3.661999999999999891e-03
3.625000000000000184e-03
3.583999999999999946e-03
3.593999999999999972e-03
3.614000000000000025e-03
3.615999999999999857e-03
3.602000000000000167e-03
3.593999999999999972e-03
3.606999999999999963e-03
3.621000000000000087e-03
3.628999999999999847e-03
3.629999999999999980e-03
3.601000000000000034e-03
3.599999999999999901e-03
3.599999999999999901e-03
3.608000000000000096e-03
3.618000000000000122e-03
3.588000000000000043e-03
3.593999999999999972e-03
3.612000000000000193e-03
3.650000000000000033e-03
3.631000000000000113e-03
3.618000000000000122e-03
3.602999999999999866e-03
3.579000000000000150e-03
3.605999999999999830e-03
3.627000000000000016e-03
3.634000000000000077e-03
3.624000000000000051e-03
3.619999999999999954e-03
3.655999999999999962e-03
3.644999999999999803e-03
3.605000000000000131e-03
3.572999999999999787e-03
3.605000000000000131e-03
3.637000000000000042e-03
3.648999999999999900e-03
3.632999999999999945e-03
3.621000000000000087e-03
3.648999999999999900e-03
3.664999999999999855e-03
3.684000000000000209e-03
3.638000000000000175e-03
3.621000000000000087e-03
3.624000000000000051e-03
3.647000000000000068e-03
3.651999999999999864e-03
3.655999999999999962e-03
3.683000000000000076e-03
3.699000000000000031e-03
3.691999999999999969e-03
3.668999999999999952e-03
3.667999999999999820e-03
3.677999999999999846e-03
3.664999999999999855e-03
3.654000000000000130e-03
3.637000000000000042e-03
3.616999999999999989e-03
3.644999999999999803e-03
3.657999999999999793e-03
3.625999999999999883e-03
3.621999999999999786e-03
3.614000000000000025e-03
3.606999999999999963e-03
3.603999999999999999e-03
3.627000000000000016e-03
3.648999999999999900e-03
3.638000000000000175e-03
3.599999999999999901e-03
3.605000000000000131e-03
3.644999999999999803e-03
3.650000000000000033e-03
3.615000000000000158e-03
3.596999999999999937e-03
3.621999999999999786e-03
3.625000000000000184e-03
3.618999999999999821e-03
3.619999999999999954e-03
3.621999999999999786e-03
3.641999999999999838e-03
