4.643999999999999691e-03
4.586999999999999932e-03
4.501999999999999925e-03
4.499999999999999660e-03
4.582000000000000135e-03
4.629000000000000302e-03
4.571999999999999675e-03
4.486999999999999669e-03
4.488999999999999935e-03
4.579999999999999870e-03
4.641000000000000160e-03
4.573999999999999941e-03
4.487999999999999802e-03
4.492000000000000333e-03
4.582000000000000135e-03
4.625999999999999904e-03
4.563000000000000216e-03
4.483000000000000006e-03
4.488999999999999935e-03
4.572999999999999808e-03
4.627000000000000036e-03
4.570000000000000277e-03
4.484000000000000138e-03
4.487999999999999802e-03
4.572999999999999808e-03
4.629999999999999567e-03
4.575000000000000074e-03
4.481999999999999873e-03
4.475999999999999944e-03
4.569000000000000145e-03
4.623999999999999638e-03
4.568000000000000012e-03
4.486000000000000404e-03
4.483000000000000006e-03
4.573999999999999941e-03
4.636000000000000364e-03
4.583000000000000268e-03
4.500999999999999793e-03
4.492000000000000333e-03
4.577999999999999604e-03
4.631999999999999833e-03
4.579999999999999870e-03
4.499999999999999660e-03
4.495999999999999996e-03
4.584000000000000401e-03
4.642000000000000293e-03
4.581000000000000003e-03
4.498000000000000262e-03
4.506999999999999722e-03
4.599999999999999922e-03
4.645999999999999956e-03
4.592999999999999861e-03
4.511000000000000253e-03
4.506999999999999722e-03
4.586999999999999932e-03
4.643999999999999691e-03
4.585999999999999799e-03
4.516000000000000049e-03
4.543000000000000163e-03
4.654000000000000151e-03
4.725000000000000033e-03
4.675999999999999601e-03
4.586999999999999932e-03
4.581000000000000003e-03
4.667000000000000141e-03
4.732000000000000095e-03
4.697999999999999919e-03
4.638999999999999894e-03
4.644999999999999823e-03
4.716999999999999839e-03
4.760000000000000342e-03
4.695000000000000388e-03
4.601000000000000055e-03
4.584999999999999666e-03
4.664999999999999876e-03
4.714000000000000308e-03
4.642000000000000293e-03
4.536000000000000101e-03
4.521999999999999978e-03
4.604999999999999719e-03
4.656000000000000416e-03
4.597999999999999657e-03
4.516000000000000049e-03
4.508999999999999987e-03
4.592999999999999861e-03
4.648000000000000222e-03
4.596000000000000259e-03
4.510000000000000120e-03
4.505999999999999589e-03
4.578999999999999737e-03
4.590999999999999595e-03
4.471000000000000148e-03
4.347000000000000169e-03
4.392000000000000071e-03
4.511000000000000253e-03
4.674000000000000203e-03
4.884999999999999586e-03
5.174999999999999913e-03
5.512000000000000406e-03
5.981000000000000205e-03
6.217999999999999569e-03
5.880999999999999943e-03
5.474999999999999832e-03
5.127999999999999746e-03
4.937000000000000416e-03
4.832999999999999623e-03
4.695000000000000388e-03
4.565999999999999746e-03
4.539999999999999765e-03
4.630999999999999700e-03
4.694000000000000256e-03
4.635000000000000231e-03
4.540999999999999898e-03
4.527999999999999907e-03
4.608000000000000117e-03
4.664999999999999876e-03
4.609000000000000249e-03
4.516000000000000049e-03
4.511000000000000253e-03
4.595000000000000126e-03
4.655000000000000283e-03
4.602000000000000188e-03
4.518000000000000314e-03
4.507999999999999854e-03
4.585999999999999799e-03
4.642000000000000293e-03
4.596000000000000259e-03
4.512999999999999651e-03
4.499000000000000395e-03
4.584999999999999666e-03
4.647000000000000089e-03
4.591999999999999728e-03
4.505999999999999589e-03
4.500999999999999793e-03
4.585999999999999799e-03
4.644999999999999823e-03
4.591999999999999728e-03
4.504000000000000191e-03
4.493999999999999731e-03
4.583000000000000268e-03
4.640000000000000027e-03
4.585999999999999799e-03
4.499999999999999660e-03
4.495999999999999996e-03
4.586999999999999932e-03
4.647000000000000089e-03
4.592999999999999861e-03
4.507999999999999854e-03
4.505999999999999589e-03
4.592999999999999861e-03
4.650999999999999752e-03
4.602000000000000188e-03
4.523000000000000111e-03
4.525000000000000376e-03
4.612999999999999913e-03
4.673000000000000070e-03
4.628000000000000169e-03
4.555000000000000021e-03
4.549000000000000092e-03
4.647000000000000089e-03
4.720000000000000237e-03
4.683999999999999796e-03
4.610000000000000382e-03
4.612999999999999913e-03
4.710999999999999910e-03
4.786999999999999589e-03
4.745000000000000086e-03
4.671999999999999938e-03
4.674000000000000203e-03
4.773000000000000333e-03
4.843000000000000083e-03
4.801999999999999845e-03
4.721000000000000370e-03
4.706000000000000114e-03
4.784000000000000058e-03
4.834999999999999888e-03
4.773999999999999598e-03
4.664999999999999876e-03
4.629000000000000302e-03
4.697999999999999919e-03
4.736999999999999891e-03
4.662999999999999610e-03
4.553999999999999888e-03
4.519999999999999712e-03
4.589000000000000197e-03
4.635000000000000231e-03
4.571000000000000410e-03
4.470000000000000015e-03
4.447999999999999697e-03
4.526999999999999774e-03
4.584999999999999666e-03
4.532999999999999703e-03
4.435999999999999839e-03
4.423999999999999981e-03
4.514999999999999916e-03
4.573999999999999941e-03
4.520999999999999845e-03
4.431000000000000043e-03
4.416999999999999919e-03
4.499999999999999660e-03
4.564999999999999614e-03
4.518000000000000314e-03
4.426000000000000247e-03
4.407999999999999592e-03
4.495999999999999996e-03
4.562000000000000083e-03
4.511000000000000253e-03
4.419000000000000185e-03
4.407000000000000327e-03
4.488999999999999935e-03
4.551000000000000358e-03
4.501999999999999925e-03
4.421999999999999716e-03
4.413000000000000256e-03
4.492999999999999598e-03
4.555000000000000021e-03
4.504000000000000191e-03
4.412000000000000123e-03
4.396999999999999867e-03
4.480999999999999740e-03
4.537000000000000234e-03
4.488999999999999935e-03
4.400000000000000265e-03
4.386000000000000142e-03
4.467999999999999750e-03
4.532999999999999703e-03
4.492999999999999598e-03
4.400000000000000265e-03
4.381000000000000345e-03
4.454999999999999759e-03
4.518000000000000314e-03
4.472000000000000280e-03
4.383999999999999876e-03
4.368000000000000355e-03
4.452000000000000228e-03
4.514999999999999916e-03
4.466999999999999617e-03
4.385000000000000009e-03
4.363999999999999824e-03
4.445000000000000166e-03
4.507999999999999854e-03
4.461999999999999821e-03
4.370999999999999885e-03
4.355999999999999629e-03
4.438000000000000105e-03
4.499000000000000395e-03
4.458000000000000157e-03
4.368999999999999620e-03
4.351999999999999966e-03
4.427999999999999645e-03
4.494999999999999864e-03
4.455999999999999892e-03
4.368999999999999620e-03
4.354000000000000231e-03
4.435999999999999839e-03
4.501999999999999925e-03
4.458000000000000157e-03
4.368999999999999620e-03
4.356999999999999762e-03
4.436999999999999972e-03
4.499999999999999660e-03
4.457000000000000024e-03
4.367000000000000222e-03
4.348999999999999568e-03
4.432000000000000176e-03
4.498000000000000262e-03
4.454999999999999759e-03
4.373000000000000151e-03
4.355000000000000364e-03
4.433000000000000308e-03
4.500999999999999793e-03
4.464000000000000086e-03
4.370999999999999885e-03
4.349999999999999700e-03
4.435999999999999839e-03
4.507999999999999854e-03
4.466999999999999617e-03
4.376999999999999814e-03
4.356999999999999762e-03
4.438000000000000105e-03
4.505000000000000324e-03
4.461999999999999821e-03
4.368999999999999620e-03
4.351999999999999966e-03
4.435999999999999839e-03
4.503000000000000058e-03
4.464000000000000086e-03
4.375999999999999682e-03
4.356999999999999762e-03
4.434999999999999706e-03
4.505999999999999589e-03
4.467999999999999750e-03
4.377999999999999947e-03
4.355999999999999629e-03
4.436999999999999972e-03
4.507999999999999854e-03
4.468999999999999882e-03
4.377999999999999947e-03
4.357999999999999895e-03
4.442999999999999901e-03
4.530000000000000172e-03
4.510000000000000120e-03
4.429999999999999910e-03
4.427999999999999645e-03
4.512000000000000385e-03
4.569000000000000145e-03
4.520999999999999845e-03
4.435999999999999839e-03
4.431000000000000043e-03
4.533999999999999836e-03
4.619999999999999975e-03
4.568000000000000012e-03
4.462999999999999953e-03
4.428999999999999777e-03
4.497000000000000129e-03
4.551999999999999623e-03
4.507999999999999854e-03
4.408999999999999725e-03
4.372000000000000018e-03
4.441999999999999768e-03
4.499000000000000395e-03
4.451000000000000095e-03
4.356999999999999762e-03
4.333000000000000046e-03
4.408999999999999725e-03
4.474999999999999811e-03
4.435999999999999839e-03
4.341000000000000240e-03
4.315000000000000259e-03
4.398000000000000000e-03
4.465000000000000219e-03
4.419000000000000185e-03
4.283000000000000348e-03
4.192000000000000413e-03
4.240999999999999978e-03
4.361000000000000293e-03
4.362999999999999691e-03
4.407000000000000327e-03
4.690999999999999857e-03
5.121999999999999817e-03
5.521999999999999999e-03
5.886999999999999872e-03
5.916000000000000252e-03
5.618999999999999863e-03
5.402999999999999817e-03
5.150000000000000064e-03
4.827999999999999826e-03
4.559999999999999817e-03
4.441999999999999768e-03
4.465000000000000219e-03
4.510000000000000120e-03
4.472000000000000280e-03
4.379000000000000080e-03
4.340000000000000108e-03
4.401999999999999663e-03
4.460999999999999688e-03
4.420999999999999583e-03
4.324999999999999852e-03
4.290999999999999676e-03
4.362999999999999691e-03
4.433999999999999574e-03
4.395999999999999734e-03
4.300000000000000003e-03
4.272999999999999889e-03
4.353000000000000098e-03
4.414999999999999654e-03
4.380000000000000213e-03
4.290000000000000410e-03
4.261000000000000031e-03
4.334000000000000179e-03
4.408999999999999725e-03
4.375000000000000416e-03
4.279999999999999950e-03
4.251999999999999703e-03
4.325999999999999984e-03
4.390999999999999938e-03
4.356999999999999762e-03
4.265999999999999827e-03
4.237999999999999580e-03
4.312999999999999994e-03
4.386000000000000142e-03
4.350999999999999833e-03
4.258999999999999765e-03
4.232999999999999784e-03
4.309999999999999595e-03
4.382999999999999743e-03
4.348999999999999568e-03
4.255000000000000102e-03
4.230000000000000253e-03
4.305999999999999932e-03
4.376999999999999814e-03
4.344999999999999904e-03
4.253999999999999969e-03
4.224999999999999589e-03
4.305999999999999932e-03
4.385000000000000009e-03
4.355000000000000364e-03
4.264999999999999694e-03
4.245999999999999774e-03
4.329000000000000382e-03
4.406000000000000194e-03
4.377999999999999947e-03
4.297999999999999737e-03
4.284999999999999747e-03
4.369999999999999753e-03
4.453999999999999626e-03
4.432000000000000176e-03
4.354000000000000231e-03
4.336999999999999710e-03
4.421999999999999716e-03
4.506999999999999722e-03
4.483000000000000006e-03
4.402999999999999796e-03
4.379000000000000080e-03
4.460000000000000422e-03
4.537000000000000234e-03
4.508999999999999987e-03
4.407999999999999592e-03
4.367000000000000222e-03
4.427999999999999645e-03
4.479000000000000342e-03
4.422999999999999848e-03
4.303999999999999666e-03
4.252999999999999836e-03
4.308000000000000197e-03
4.362000000000000426e-03
4.309999999999999595e-03
4.200999999999999873e-03
4.155999999999999972e-03
4.218999999999999660e-03
4.281000000000000083e-03
4.240999999999999978e-03
4.144000000000000114e-03
4.106000000000000275e-03
4.170000000000000095e-03
4.242000000000000111e-03
4.209000000000000068e-03
4.108999999999999805e-03
4.075999999999999762e-03
4.144000000000000114e-03
4.216000000000000129e-03
4.186999999999999750e-03
4.092000000000000151e-03
4.054999999999999577e-03
4.127999999999999725e-03
4.202000000000000006e-03
4.166999999999999697e-03
4.074000000000000364e-03
4.036999999999999790e-03
4.109999999999999938e-03
4.183000000000000086e-03
4.152000000000000308e-03
4.061000000000000373e-03
4.027000000000000197e-03
4.101999999999999744e-03
4.173999999999999759e-03
4.141999999999999849e-03
4.050999999999999913e-03
4.015999999999999605e-03
4.083999999999999957e-03
4.159000000000000370e-03
4.127999999999999725e-03
4.028999999999999596e-03
3.997999999999999818e-03
4.063999999999999904e-03
4.137000000000000052e-03
4.112000000000000204e-03
4.021000000000000268e-03
3.987000000000000093e-03
4.052000000000000046e-03
4.126000000000000327e-03
4.100999999999999611e-03
4.004999999999999880e-03
3.965999999999999907e-03
4.035000000000000392e-03
4.109999999999999938e-03
4.080000000000000293e-03
3.983999999999999694e-03
3.949000000000000253e-03
4.017999999999999870e-03
4.087999999999999620e-03
4.061000000000000373e-03
3.968000000000000173e-03
3.926999999999999935e-03
3.996000000000000420e-03
4.069999999999999833e-03
4.039000000000000055e-03
3.942000000000000191e-03
3.908000000000000015e-03
3.976999999999999633e-03
4.047000000000000250e-03
4.015000000000000339e-03
3.923000000000000272e-03
3.883999999999999866e-03
3.949000000000000253e-03
4.017999999999999870e-03
3.989999999999999623e-03
3.893999999999999892e-03
3.851999999999999955e-03
3.917000000000000343e-03
3.989000000000000358e-03
3.957999999999999713e-03
3.861999999999999982e-03
3.814999999999999815e-03
3.884999999999999998e-03
3.952999999999999917e-03
3.922000000000000139e-03
3.823000000000000009e-03
3.782000000000000205e-03
3.850000000000000124e-03
3.921000000000000006e-03
3.889999999999999795e-03
3.789999999999999966e-03
3.746000000000000198e-03
3.808999999999999886e-03
3.879000000000000069e-03
3.850999999999999823e-03
3.753999999999999958e-03
3.714999999999999986e-03
3.771000000000000046e-03
3.838999999999999965e-03
3.808000000000000187e-03
3.710000000000000190e-03
3.673000000000000050e-03
3.743999999999999932e-03
3.825999999999999974e-03
3.804000000000000090e-03
3.717999999999999951e-03
3.687999999999999872e-03
3.759999999999999887e-03
3.844000000000000195e-03
3.834000000000000168e-03
3.742999999999999799e-03
3.707999999999999925e-03
3.779999999999999940e-03
3.861999999999999982e-03
3.844000000000000195e-03
3.750999999999999994e-03
3.720999999999999915e-03
3.791000000000000099e-03
3.867999999999999911e-03
3.848999999999999991e-03
3.759000000000000188e-03
3.716999999999999818e-03
3.779999999999999940e-03
3.854999999999999920e-03
3.831000000000000204e-03
3.733000000000000207e-03
3.690000000000000138e-03
3.753999999999999958e-03
3.828999999999999938e-03
3.798999999999999860e-03
3.700000000000000164e-03
3.657000000000000094e-03
3.722000000000000048e-03
3.794000000000000063e-03
3.774000000000000011e-03
3.674000000000000182e-03
3.631999999999999812e-03
3.694999999999999934e-03
3.768000000000000082e-03
3.743999999999999932e-03
3.648999999999999900e-03
3.605999999999999830e-03
3.668999999999999952e-03
3.746000000000000198e-03
3.723999999999999880e-03
3.625000000000000184e-03
3.582999999999999814e-03
3.648000000000000201e-03
3.722000000000000048e-03
3.700000000000000164e-03
3.605000000000000131e-03
3.567999999999999991e-03
3.629999999999999980e-03
3.707999999999999925e-03
3.680999999999999810e-03
3.586000000000000212e-03
3.546000000000000107e-03
3.609999999999999928e-03
3.687999999999999872e-03
3.667000000000000121e-03
3.570999999999999956e-03
3.527999999999999886e-03
3.595000000000000105e-03
3.671999999999999917e-03
3.658999999999999926e-03
3.563999999999999894e-03
3.524999999999999922e-03
3.589000000000000176e-03
3.664999999999999855e-03
3.644999999999999803e-03
3.550999999999999903e-03
3.507999999999999834e-03
3.582000000000000114e-03
3.657999999999999793e-03
3.642999999999999971e-03
3.553999999999999868e-03
3.514000000000000196e-03
3.582000000000000114e-03
3.658999999999999926e-03
3.638999999999999874e-03
3.556000000000000133e-03
3.514000000000000196e-03
3.576000000000000185e-03
3.660000000000000059e-03
3.652999999999999997e-03
3.580999999999999982e-03
3.556000000000000133e-03
3.632999999999999945e-03
3.716999999999999818e-03
3.694999999999999934e-03
3.602000000000000167e-03
3.557999999999999965e-03
3.637000000000000042e-03
3.729000000000000110e-03
3.739000000000000136e-03
3.658999999999999926e-03
3.606999999999999963e-03
3.658999999999999926e-03
3.729000000000000110e-03
3.704999999999999960e-03
3.602999999999999866e-03
3.557999999999999965e-03
3.625999999999999883e-03
3.694999999999999934e-03
3.670999999999999784e-03
3.576000000000000185e-03
3.527999999999999886e-03
3.586999999999999911e-03
3.668999999999999952e-03
3.657000000000000094e-03
3.566999999999999858e-03
3.527000000000000187e-03
3.592000000000000141e-03
3.674999999999999881e-03
3.663000000000000023e-03
3.567999999999999991e-03
3.474000000000000091e-03
3.469999999999999994e-03
3.517000000000000161e-03
3.550000000000000204e-03
3.504999999999999869e-03
3.575000000000000053e-03
3.932999999999999864e-03
4.368999999999999620e-03
4.694000000000000256e-03
5.007000000000000166e-03
5.113999999999999622e-03
4.931999999999999752e-03
4.734000000000000360e-03
4.423999999999999981e-03
4.055999999999999710e-03
3.814999999999999815e-03
3.769000000000000215e-03
3.785000000000000170e-03
3.735000000000000039e-03
3.648000000000000201e-03
3.602000000000000167e-03
3.648999999999999900e-03
3.717999999999999951e-03
3.700000000000000164e-03
3.608999999999999795e-03
3.562000000000000062e-03
3.625999999999999883e-03
3.706000000000000093e-03
3.687000000000000173e-03
3.595999999999999804e-03
3.555000000000000000e-03
3.618999999999999821e-03
3.697000000000000199e-03
3.684000000000000209e-03
3.592999999999999840e-03
3.552000000000000036e-03
3.614000000000000025e-03
3.691999999999999969e-03
3.678999999999999979e-03
3.589999999999999875e-03
3.550000000000000204e-03
3.605000000000000131e-03
3.687999999999999872e-03
3.680000000000000111e-03
3.592999999999999840e-03
3.546999999999999806e-03
3.606999999999999963e-03
3.689000000000000005e-03
3.687000000000000173e-03
3.601000000000000034e-03
3.555000000000000000e-03
3.621000000000000087e-03
3.703000000000000128e-03
3.694999999999999934e-03
3.606999999999999963e-03
3.566999999999999858e-03
3.628000000000000148e-03
3.714999999999999986e-03
3.706000000000000093e-03
3.619999999999999954e-03
3.579000000000000150e-03
3.641999999999999838e-03
3.733000000000000207e-03
3.729999999999999809e-03
3.647000000000000068e-03
3.614000000000000025e-03
3.677000000000000147e-03
3.759999999999999887e-03
3.763999999999999985e-03
3.684999999999999908e-03
3.650000000000000033e-03
3.729000000000000110e-03
3.827000000000000107e-03
3.834000000000000168e-03
3.758000000000000056e-03
3.726999999999999844e-03
3.801999999999999824e-03
3.899000000000000122e-03
3.902000000000000086e-03
3.827999999999999806e-03
3.798999999999999860e-03
3.867999999999999911e-03
3.961000000000000111e-03
3.963000000000000377e-03
3.879000000000000069e-03
3.831999999999999903e-03
3.889000000000000096e-03
3.962000000000000244e-03
3.941000000000000059e-03
3.831999999999999903e-03
3.763999999999999985e-03
3.801000000000000125e-03
3.863999999999999813e-03
3.850000000000000124e-03
3.740999999999999968e-03
3.677000000000000147e-03
3.720000000000000216e-03
3.794000000000000063e-03
3.775000000000000144e-03
3.676000000000000014e-03
3.625999999999999883e-03
3.683000000000000076e-03
3.762000000000000153e-03
3.752000000000000127e-03
3.664000000000000156e-03
3.618000000000000122e-03
3.671999999999999917e-03
3.761000000000000020e-03
3.759999999999999887e-03
3.670000000000000085e-03
3.621999999999999786e-03
3.684000000000000209e-03
3.769999999999999914e-03
3.765000000000000117e-03
3.678999999999999979e-03
3.634000000000000077e-03
3.691999999999999969e-03
3.775999999999999843e-03
3.774000000000000011e-03
3.686000000000000040e-03
3.635000000000000210e-03
3.703000000000000128e-03
3.788000000000000134e-03
3.784000000000000037e-03
3.700000000000000164e-03
3.650000000000000033e-03
3.706000000000000093e-03
3.795999999999999895e-03
3.795999999999999895e-03
3.710999999999999889e-03
3.664000000000000156e-03
3.726000000000000145e-03
3.811000000000000151e-03
3.808000000000000187e-03
3.719000000000000083e-03
3.671999999999999917e-03
3.730999999999999941e-03
3.814999999999999815e-03
3.817000000000000080e-03
3.730999999999999941e-03
3.684999999999999908e-03
3.743999999999999932e-03
3.828999999999999938e-03
3.833000000000000036e-03
3.745000000000000065e-03
3.700000000000000164e-03
3.765000000000000117e-03
3.846000000000000026e-03
3.847999999999999858e-03
3.766999999999999949e-03
3.719000000000000083e-03
3.776999999999999975e-03
3.867000000000000211e-03
3.870000000000000176e-03
3.776999999999999975e-03
3.730999999999999941e-03
3.791999999999999798e-03
3.880999999999999901e-03
3.883999999999999866e-03
3.799999999999999992e-03
3.749000000000000162e-03
3.805999999999999921e-03
3.899000000000000122e-03
3.903999999999999918e-03
3.821000000000000178e-03
3.771000000000000046e-03
3.827999999999999806e-03
3.921000000000000006e-03
3.929000000000000201e-03
3.847999999999999858e-03
3.798999999999999860e-03
3.860000000000000150e-03
3.950000000000000386e-03
3.956000000000000315e-03
3.869000000000000043e-03
3.821000000000000178e-03
3.880000000000000202e-03
3.972999999999999969e-03
3.976000000000000367e-03
3.893000000000000193e-03
3.846000000000000026e-03
3.908000000000000015e-03
4.000000000000000083e-03
4.006000000000000012e-03
3.924000000000000404e-03
3.877999999999999937e-03
3.944999999999999722e-03
4.036999999999999790e-03
4.046000000000000117e-03
3.968000000000000173e-03
3.924000000000000404e-03
3.983999999999999694e-03
4.082999999999999824e-03
4.096999999999999947e-03
4.015999999999999605e-03
3.972999999999999969e-03
4.031999999999999994e-03
4.126000000000000327e-03
4.134999999999999787e-03
4.048999999999999648e-03
3.998999999999999951e-03
4.057999999999999975e-03
4.139999999999999583e-03
4.139000000000000318e-03
4.061000000000000373e-03
4.010999999999999809e-03
4.060000000000000241e-03
4.142999999999999981e-03
4.137000000000000052e-03
4.048999999999999648e-03
3.988000000000000225e-03
4.028999999999999596e-03
4.105000000000000142e-03
4.101999999999999744e-03
4.004999999999999880e-03
3.941000000000000059e-03
3.984999999999999827e-03
4.065000000000000037e-03
4.055999999999999710e-03
3.968000000000000173e-03
3.906000000000000184e-03
3.948000000000000120e-03
4.027000000000000197e-03
4.031999999999999994e-03
3.935000000000000130e-03
3.879000000000000069e-03
3.931999999999999731e-03
4.013000000000000074e-03
4.015999999999999605e-03
3.928000000000000068e-03
3.870000000000000176e-03
3.919999999999999873e-03
4.006000000000000012e-03
4.008000000000000278e-03
3.923000000000000272e-03
3.867000000000000211e-03
3.912999999999999812e-03
3.996000000000000420e-03
3.995000000000000287e-03
3.906999999999999883e-03
3.853000000000000088e-03
3.902999999999999785e-03
3.994000000000000154e-03
4.002999999999999614e-03
3.915000000000000077e-03
3.859000000000000017e-03
3.912999999999999812e-03
4.003999999999999747e-03
4.008000000000000278e-03
3.919999999999999873e-03
3.859000000000000017e-03
3.913999999999999944e-03
3.996999999999999685e-03
4.004999999999999880e-03
3.926999999999999935e-03
3.876000000000000105e-03
3.928000000000000068e-03
4.015000000000000339e-03
4.026000000000000065e-03
3.943000000000000324e-03
3.887999999999999963e-03
3.944999999999999722e-03
4.039000000000000055e-03
4.063999999999999904e-03
3.998999999999999951e-03
3.955000000000000182e-03
4.002999999999999614e-03
4.088999999999999753e-03
4.093000000000000284e-03
4.010999999999999809e-03
3.972999999999999969e-03
4.046000000000000117e-03
4.163000000000000034e-03
4.176000000000000024e-03
4.070999999999999966e-03
4.001000000000000216e-03
4.043999999999999852e-03
4.120999999999999663e-03
4.131000000000000123e-03
4.041999999999999586e-03
3.969999999999999571e-03
4.004999999999999880e-03
4.087999999999999620e-03
4.094999999999999682e-03
4.007000000000000145e-03
3.957999999999999713e-03
4.009999999999999676e-03
4.100000000000000346e-03
4.109999999999999938e-03
4.026000000000000065e-03
3.967000000000000040e-03
4.015999999999999605e-03
4.113000000000000336e-03
4.120999999999999663e-03
3.996000000000000420e-03
3.864999999999999946e-03
3.877999999999999937e-03
4.009999999999999676e-03
4.048999999999999648e-03
4.081000000000000426e-03
4.321000000000000188e-03
4.748999999999999749e-03
5.185000000000000372e-03
5.602000000000000209e-03
5.629999999999999588e-03
5.308000000000000218e-03
5.080999999999999579e-03
4.865999999999999666e-03
4.606999999999999984e-03
4.344999999999999904e-03
4.199999999999999740e-03
4.191000000000000281e-03
4.245999999999999774e-03
4.255000000000000102e-03
4.177000000000000157e-03
4.104000000000000009e-03
4.138000000000000185e-03
4.224000000000000324e-03
4.232999999999999784e-03
4.146999999999999645e-03
4.083999999999999957e-03
4.124000000000000062e-03
4.207999999999999935e-03
4.216000000000000129e-03
4.146000000000000379e-03
4.094000000000000417e-03
4.133999999999999654e-03
4.231999999999999651e-03
4.237999999999999580e-03
4.152999999999999574e-03
4.100999999999999611e-03
4.146999999999999645e-03
4.232999999999999784e-03
4.255000000000000102e-03
4.172000000000000361e-03
4.107000000000000407e-03
4.155999999999999972e-03
4.251999999999999703e-03
4.265999999999999827e-03
4.184000000000000219e-03
4.126000000000000327e-03
4.165000000000000299e-03
4.253999999999999969e-03
4.266999999999999960e-03
4.191000000000000281e-03
4.133000000000000389e-03
4.179000000000000423e-03
4.272999999999999889e-03
4.289000000000000278e-03
4.214999999999999997e-03
4.155999999999999972e-03
4.203000000000000139e-03
4.295000000000000207e-03
4.312999999999999994e-03
4.238999999999999713e-03
4.192000000000000413e-03
4.231999999999999651e-03
4.317999999999999790e-03
4.338999999999999975e-03
4.264999999999999694e-03
4.211999999999999598e-03
4.261000000000000031e-03
4.368000000000000355e-03
4.400000000000000265e-03
4.330999999999999781e-03
4.290000000000000410e-03
4.342999999999999639e-03
4.447000000000000432e-03
4.479000000000000342e-03
4.410999999999999990e-03
4.367000000000000222e-03
4.418000000000000052e-03
4.524000000000000243e-03
4.558000000000000419e-03
4.488999999999999935e-03
4.440999999999999635e-03
4.491000000000000200e-03
4.590000000000000330e-03
4.610999999999999648e-03
4.529000000000000040e-03
4.462999999999999953e-03
4.492000000000000333e-03
4.563000000000000216e-03
4.557000000000000287e-03
4.458000000000000157e-03
4.367000000000000222e-03
4.386000000000000142e-03
4.457000000000000024e-03
4.458000000000000157e-03
4.362999999999999691e-03
4.292999999999999941e-03
4.316999999999999657e-03
4.392000000000000071e-03
4.401999999999999663e-03
4.309000000000000330e-03
4.243000000000000244e-03
4.278999999999999818e-03
4.367000000000000222e-03
4.380000000000000213e-03
4.294000000000000074e-03
4.237000000000000315e-03
4.283999999999999614e-03
4.370999999999999885e-03
4.390999999999999938e-03
4.316000000000000392e-03
4.251999999999999703e-03
4.291999999999999808e-03
4.385000000000000009e-03
4.401000000000000398e-03
4.318999999999999923e-03
4.257000000000000367e-03
4.296999999999999605e-03
4.387000000000000274e-03
4.407999999999999592e-03
4.328000000000000250e-03
4.264000000000000429e-03
4.304999999999999799e-03
4.396999999999999867e-03
4.420000000000000318e-03
4.335999999999999577e-03
4.270999999999999623e-03
4.321000000000000188e-03
4.408999999999999725e-03
4.429999999999999910e-03
4.354000000000000231e-03
4.296000000000000339e-03
4.335000000000000311e-03
4.431000000000000043e-03
4.455999999999999892e-03
4.375000000000000416e-03
4.314000000000000126e-03
4.349999999999999700e-03
4.435999999999999839e-03
4.459000000000000290e-03
4.381999999999999611e-03
4.323999999999999719e-03
4.362999999999999691e-03
4.448999999999999830e-03
4.468999999999999882e-03
4.382999999999999743e-03
4.321000000000000188e-03
4.362999999999999691e-03
4.455999999999999892e-03
4.479999999999999608e-03
4.396999999999999867e-03
4.330999999999999781e-03
4.369999999999999753e-03
4.467999999999999750e-03
4.492000000000000333e-03
4.410999999999999990e-03
4.342000000000000373e-03
4.392000000000000071e-03
4.484000000000000138e-03
4.505000000000000324e-03
4.422999999999999848e-03
4.356999999999999762e-03
4.392000000000000071e-03
4.479999999999999608e-03
4.506999999999999722e-03
4.432000000000000176e-03
4.360000000000000160e-03
4.398000000000000000e-03
4.491000000000000200e-03
4.514999999999999916e-03
4.435999999999999839e-03
4.356999999999999762e-03
4.388000000000000407e-03
4.485000000000000271e-03
4.513999999999999783e-03
4.441999999999999768e-03
4.375999999999999682e-03
4.409999999999999858e-03
4.499999999999999660e-03
4.530000000000000172e-03
4.452000000000000228e-03
4.381000000000000345e-03
4.410999999999999990e-03
4.499999999999999660e-03
4.525000000000000376e-03
4.445000000000000166e-03
4.376999999999999814e-03
4.422999999999999848e-03
4.514999999999999916e-03
4.527999999999999907e-03
4.454999999999999759e-03
4.389999999999999805e-03
4.416999999999999919e-03
4.514999999999999916e-03
4.545000000000000429e-03
4.458000000000000157e-03
4.395999999999999734e-03
4.432000000000000176e-03
4.521999999999999978e-03
4.547999999999999959e-03
4.473000000000000413e-03
4.413000000000000256e-03
4.436999999999999972e-03
4.530000000000000172e-03
4.563000000000000216e-03
4.486999999999999669e-03
4.419000000000000185e-03
4.442999999999999901e-03
4.529000000000000040e-03
4.564000000000000348e-03
4.488999999999999935e-03
4.420999999999999583e-03
4.453999999999999626e-03
4.551000000000000358e-03
4.576000000000000206e-03
4.495999999999999996e-03
4.425000000000000114e-03
4.455999999999999892e-03
4.546999999999999827e-03
4.579999999999999870e-03
4.507999999999999854e-03
4.461999999999999821e-03
4.512999999999999651e-03
4.612999999999999913e-03
4.644999999999999823e-03
4.559999999999999817e-03
4.483000000000000006e-03
4.518999999999999580e-03
4.623000000000000373e-03
4.668000000000000274e-03
4.616999999999999577e-03
4.576000000000000206e-03
4.602000000000000188e-03
4.667000000000000141e-03
4.688000000000000327e-03
4.602000000000000188e-03
4.525999999999999641e-03
4.552999999999999756e-03
4.634000000000000098e-03
4.643000000000000425e-03
4.545999999999999694e-03
4.474999999999999811e-03
4.497000000000000129e-03
4.577000000000000339e-03
4.609000000000000249e-03
4.538000000000000367e-03
4.465000000000000219e-03
4.486000000000000404e-03
4.578999999999999737e-03
4.614000000000000046e-03
4.543000000000000163e-03
4.472000000000000280e-03
4.490000000000000067e-03
4.530000000000000172e-03
4.481999999999999873e-03
4.386000000000000142e-03
4.353000000000000098e-03
4.405000000000000061e-03
4.619999999999999975e-03
4.937000000000000416e-03
5.259999999999999919e-03
5.544999999999999582e-03
5.947000000000000029e-03
6.003999999999999788e-03
5.703999999999999869e-03
5.348000000000000323e-03
4.987000000000000113e-03
4.784000000000000058e-03
4.746000000000000218e-03
4.725000000000000033e-03
4.624999999999999771e-03
4.542000000000000030e-03
4.571999999999999675e-03
4.673000000000000070e-03
4.695000000000000388e-03
4.608000000000000117e-03
4.531999999999999570e-03
4.562000000000000083e-03
4.657999999999999814e-03
4.680000000000000132e-03
4.602000000000000188e-03
4.536000000000000101e-03
4.559999999999999817e-03
4.649000000000000354e-03
4.684999999999999928e-03
4.610000000000000382e-03
4.539999999999999765e-03
4.569000000000000145e-03
4.660000000000000080e-03
4.690999999999999857e-03
4.618999999999999842e-03
4.552999999999999756e-03
4.578999999999999737e-03
4.668000000000000274e-03
4.697999999999999919e-03
4.618999999999999842e-03
4.547999999999999959e-03
4.579999999999999870e-03
4.677999999999999867e-03
4.713000000000000175e-03
4.645999999999999956e-03
4.577999999999999604e-03
4.602000000000000188e-03
4.684999999999999928e-03
4.728000000000000431e-03
4.658999999999999947e-03
4.596000000000000259e-03
4.625999999999999904e-03
4.719000000000000104e-03
4.748999999999999749e-03
4.682999999999999663e-03
4.611999999999999780e-03
4.640000000000000027e-03
4.736999999999999891e-03
4.775999999999999863e-03
4.707000000000000246e-03
4.636999999999999629e-03
4.668000000000000274e-03
4.767000000000000404e-03
4.813999999999999703e-03
4.754999999999999678e-03
4.690999999999999857e-03
4.722999999999999768e-03
4.819999999999999632e-03
4.864000000000000268e-03
4.804000000000000110e-03
4.752000000000000147e-03
4.797000000000000049e-03
4.898999999999999709e-03
4.947000000000000008e-03
4.891000000000000382e-03
4.825000000000000296e-03
4.856000000000000073e-03
4.956999999999999601e-03
5.001000000000000237e-03
4.943000000000000345e-03
4.880999999999999922e-03
4.908000000000000036e-03
4.994000000000000175e-03
5.020000000000000157e-03
4.930000000000000354e-03
4.836000000000000021e-03
4.837000000000000154e-03
4.902000000000000107e-03
4.917999999999999629e-03
4.824000000000000163e-03
4.727000000000000299e-03
4.739000000000000157e-03
4.817000000000000101e-03
4.837000000000000154e-03
4.754999999999999678e-03
4.671999999999999938e-03
4.684999999999999928e-03
4.768999999999999802e-03
4.798000000000000181e-03
4.729999999999999830e-03
4.655000000000000283e-03
4.675999999999999601e-03
4.772000000000000200e-03
4.806999999999999641e-03
4.734999999999999626e-03
4.660000000000000080e-03
4.681000000000000265e-03
4.774999999999999731e-03
4.811000000000000172e-03
4.746000000000000218e-03
4.675999999999999601e-03
4.694000000000000256e-03
4.781999999999999792e-03
4.812000000000000305e-03
4.742999999999999820e-03
4.671999999999999938e-03
4.689999999999999725e-03
4.778000000000000129e-03
4.819000000000000367e-03
4.747999999999999617e-03
4.675999999999999601e-03
4.689999999999999725e-03
4.780999999999999660e-03
4.825000000000000296e-03
4.759000000000000209e-03
4.680000000000000132e-03
4.702999999999999715e-03
4.791000000000000120e-03
4.826999999999999694e-03
4.760000000000000342e-03
4.682999999999999663e-03
4.701999999999999583e-03
4.797000000000000049e-03
4.831000000000000225e-03
4.759000000000000209e-03
4.682999999999999663e-03
4.704999999999999981e-03
4.799999999999999580e-03
4.837000000000000154e-03
4.766000000000000271e-03
4.689999999999999725e-03
4.708000000000000379e-03
4.799999999999999580e-03
4.838000000000000286e-03
4.773000000000000333e-03
4.701999999999999583e-03
4.716999999999999839e-03
4.807999999999999774e-03
4.845999999999999613e-03
4.774999999999999731e-03
4.699000000000000052e-03
4.725000000000000033e-03
4.812000000000000305e-03
4.849000000000000012e-03
4.776999999999999996e-03
4.702999999999999715e-03
4.722999999999999768e-03
4.812999999999999570e-03
4.856000000000000073e-03
4.786999999999999589e-03
4.710999999999999910e-03
4.727000000000000299e-03
4.817000000000000101e-03
4.860999999999999870e-03
4.793999999999999651e-03
4.717999999999999972e-03
4.734000000000000360e-03
4.826000000000000428e-03
4.866999999999999799e-03
4.797000000000000049e-03
4.725000000000000033e-03
4.741000000000000422e-03
4.832000000000000357e-03
4.872999999999999728e-03
4.806000000000000376e-03
4.728999999999999697e-03
4.745000000000000086e-03
4.832999999999999623e-03
4.878999999999999657e-03
4.811000000000000172e-03
4.738000000000000024e-03
4.752000000000000147e-03
4.845000000000000348e-03
4.884000000000000320e-03
4.814999999999999836e-03
4.735999999999999759e-03
4.752000000000000147e-03
4.843000000000000083e-03
4.884999999999999586e-03
4.813999999999999703e-03
4.738000000000000024e-03
4.758000000000000076e-03
4.847999999999999879e-03
4.890000000000000249e-03
4.828999999999999959e-03
4.767999999999999669e-03
4.807999999999999774e-03
4.910000000000000302e-03
4.964999999999999795e-03
4.904999999999999638e-03
4.812999999999999570e-03
4.824000000000000163e-03
4.917000000000000363e-03
4.975000000000000255e-03
4.937000000000000416e-03
4.882000000000000055e-03
4.884999999999999586e-03
4.961000000000000132e-03
4.995999999999999573e-03
4.919999999999999894e-03
4.832999999999999623e-03
4.840999999999999817e-03
4.924000000000000425e-03
4.948000000000000141e-03
4.865000000000000401e-03
4.779000000000000262e-03
4.789999999999999987e-03
4.874999999999999993e-03
4.912999999999999833e-03
4.847999999999999879e-03
4.771000000000000067e-03
4.780000000000000394e-03
4.873999999999999860e-03
4.924999999999999691e-03
4.856000000000000073e-03
4.781999999999999792e-03
4.788999999999999854e-03
4.841999999999999950e-03
4.815999999999999968e-03
4.701000000000000317e-03
4.662000000000000345e-03
4.717999999999999972e-03
4.910000000000000302e-03
5.224999999999999610e-03
5.523000000000000131e-03
5.784000000000000079e-03
6.178999999999999597e-03
6.492000000000000375e-03
6.291999999999999850e-03
5.923000000000000313e-03
5.524000000000000264e-03
5.243000000000000264e-03
5.154999999999999860e-03
5.100999999999999632e-03
4.977999999999999786e-03
4.874999999999999993e-03
4.886999999999999851e-03
4.982999999999999582e-03
5.019000000000000024e-03
4.937999999999999681e-03
4.857000000000000206e-03
4.864000000000000268e-03
4.950999999999999672e-03
4.994000000000000175e-03
4.921000000000000027e-03
4.838000000000000286e-03
4.853999999999999808e-03
4.945999999999999876e-03
4.995000000000000308e-03
4.934000000000000018e-03
4.852000000000000410e-03
4.859999999999999737e-03
4.951999999999999805e-03
5.001000000000000237e-03
4.937999999999999681e-03
4.858000000000000339e-03
4.866999999999999799e-03
4.958999999999999866e-03
5.007000000000000166e-03
4.945999999999999876e-03
4.865000000000000401e-03
4.870000000000000197e-03
4.957999999999999734e-03
5.024999999999999953e-03
4.963000000000000397e-03
4.878000000000000391e-03
4.886999999999999851e-03
4.982999999999999582e-03
5.034000000000000280e-03
4.968000000000000194e-03
4.890000000000000249e-03
4.898999999999999709e-03
4.990999999999999777e-03
5.045000000000000005e-03
4.982999999999999582e-03
4.904999999999999638e-03
4.924999999999999691e-03
5.022000000000000422e-03
5.072000000000000119e-03
5.011999999999999962e-03
4.937999999999999681e-03
4.951999999999999805e-03
5.049999999999999802e-03
5.105000000000000163e-03
5.048000000000000403e-03
4.978999999999999919e-03
4.998999999999999971e-03
5.106000000000000295e-03
5.168999999999999984e-03
5.118000000000000153e-03
5.049999999999999802e-03
5.070999999999999987e-03
5.184000000000000240e-03
5.245999999999999795e-03
5.197000000000000230e-03
5.127999999999999746e-03
5.148999999999999931e-03
5.246999999999999928e-03
5.309999999999999616e-03
5.261000000000000051e-03
5.186999999999999771e-03
5.190000000000000169e-03
5.281000000000000104e-03
5.314000000000000147e-03
5.233999999999999937e-03
5.139999999999999604e-03
5.127999999999999746e-03
5.193999999999999832e-03
5.222000000000000079e-03
5.139000000000000339e-03
5.039000000000000076e-03
5.022000000000000422e-03
5.101999999999999764e-03
5.144000000000000135e-03
5.067999999999999589e-03
4.982000000000000317e-03
4.977999999999999786e-03
5.061999999999999660e-03
5.108999999999999826e-03
5.045000000000000005e-03
4.959999999999999999e-03
4.964999999999999795e-03
5.053000000000000200e-03
5.107000000000000428e-03
5.041999999999999607e-03
4.958999999999999866e-03
4.964999999999999795e-03
5.059000000000000129e-03
5.107999999999999693e-03
5.046000000000000138e-03
4.970999999999999724e-03
4.976000000000000388e-03
5.066000000000000190e-03
5.117000000000000021e-03
5.060000000000000261e-03
4.978999999999999919e-03
4.984999999999999848e-03
5.078000000000000048e-03
5.126999999999999613e-03
5.068999999999999721e-03
4.987000000000000113e-03
4.989000000000000379e-03
5.082999999999999845e-03
5.134999999999999808e-03
5.074999999999999650e-03
4.995999999999999573e-03
4.994000000000000175e-03
5.080999999999999579e-03
5.134999999999999808e-03
5.074000000000000385e-03
4.994000000000000175e-03
4.996999999999999706e-03
5.087000000000000376e-03
5.141999999999999869e-03
5.085000000000000110e-03
5.000000000000000104e-03
5.006000000000000033e-03
5.096999999999999968e-03
5.151000000000000197e-03
5.087999999999999641e-03
5.006000000000000033e-03
5.009999999999999697e-03
5.105000000000000163e-03
5.157000000000000126e-03
5.093000000000000305e-03
5.014000000000000228e-03
5.014000000000000228e-03
5.107000000000000428e-03
5.165000000000000320e-03
5.104000000000000030e-03
5.022000000000000422e-03
5.027000000000000218e-03
5.115999999999999888e-03
5.167999999999999851e-03
5.108999999999999826e-03
5.024999999999999953e-03
5.023999999999999820e-03
5.120999999999999684e-03
5.173999999999999780e-03
5.112000000000000224e-03
5.029999999999999749e-03
5.030999999999999882e-03
5.124000000000000082e-03
5.177000000000000178e-03
5.119000000000000286e-03
5.042999999999999740e-03
5.042999999999999740e-03
5.125000000000000215e-03
5.184000000000000240e-03
5.126000000000000348e-03
5.042999999999999740e-03
5.041999999999999607e-03
5.130000000000000011e-03
5.187999999999999903e-03
5.130000000000000011e-03
5.048999999999999669e-03
5.048000000000000403e-03
5.133999999999999675e-03
5.186999999999999771e-03
5.131000000000000144e-03
5.042999999999999740e-03
5.046000000000000138e-03
5.134999999999999808e-03
5.191000000000000301e-03
5.139999999999999604e-03
5.060000000000000261e-03
5.057999999999999996e-03
5.145000000000000268e-03
5.202000000000000027e-03
5.143000000000000002e-03
5.054999999999999598e-03
5.067999999999999589e-03
5.148999999999999931e-03
5.203000000000000159e-03
5.153999999999999727e-03
5.073000000000000252e-03
5.076999999999999916e-03
5.163000000000000055e-03
5.216000000000000150e-03
5.155999999999999993e-03
5.073000000000000252e-03
5.074000000000000385e-03
5.161999999999999922e-03
5.218999999999999681e-03
5.163000000000000055e-03
5.082999999999999845e-03
5.079000000000000181e-03
5.164000000000000187e-03
5.228000000000000008e-03
5.168999999999999984e-03
5.082999999999999845e-03
5.080000000000000314e-03
5.167999999999999851e-03
5.228000000000000008e-03
5.178000000000000311e-03
5.094999999999999703e-03
5.094999999999999703e-03
5.178000000000000311e-03
5.237999999999999601e-03
5.177000000000000178e-03
5.094999999999999703e-03
5.093999999999999570e-03
5.178999999999999576e-03
5.232999999999999804e-03
5.186999999999999771e-03
5.100999999999999632e-03
5.095999999999999835e-03
5.183000000000000107e-03
5.237999999999999601e-03
5.181999999999999974e-03
5.100999999999999632e-03
5.100999999999999632e-03
5.192999999999999700e-03
5.255000000000000122e-03
5.197000000000000230e-03
5.108999999999999826e-03
5.107000000000000428e-03
5.200999999999999894e-03
5.258999999999999786e-03
5.217000000000000283e-03
5.157000000000000126e-03
5.166999999999999718e-03
5.264999999999999715e-03
5.320000000000000076e-03
5.256000000000000255e-03
5.165000000000000320e-03
5.165000000000000320e-03
5.269000000000000246e-03
5.354000000000000252e-03
5.315000000000000280e-03
5.213999999999999885e-03
5.192999999999999700e-03
5.263999999999999582e-03
5.315000000000000280e-03
5.263999999999999582e-03
5.176000000000000045e-03
5.159999999999999656e-03
5.228000000000000008e-03
5.272999999999999909e-03
5.215000000000000017e-03
5.130000000000000011e-03
5.120999999999999684e-03
5.203000000000000159e-03
5.265999999999999848e-03
5.207999999999999956e-03
5.124000000000000082e-03
5.118000000000000153e-03
5.205999999999999690e-03
5.265999999999999848e-03
5.209000000000000088e-03
5.091000000000000039e-03
5.020000000000000157e-03
5.050999999999999934e-03
5.132000000000000277e-03
5.128999999999999879e-03
5.120000000000000419e-03
5.347000000000000190e-03
5.785000000000000211e-03
6.194999999999999986e-03
6.509000000000000029e-03
6.738000000000000066e-03
6.572999999999999850e-03
6.368000000000000396e-03
6.137000000000000094e-03
5.781999999999999813e-03
5.473999999999999699e-03
5.340000000000000129e-03
5.344999999999999925e-03
5.359000000000000048e-03
5.296000000000000360e-03
5.217000000000000283e-03
5.202000000000000027e-03
5.274000000000000042e-03
5.321000000000000209e-03
5.264999999999999715e-03
5.167999999999999851e-03
5.165999999999999585e-03
5.249000000000000193e-03
5.304999999999999820e-03
5.255000000000000122e-03
5.164000000000000187e-03
5.152999999999999595e-03
5.244000000000000397e-03
5.304999999999999820e-03
5.255000000000000122e-03
5.167999999999999851e-03
5.153999999999999727e-03
5.243000000000000264e-03
5.303000000000000422e-03
5.253999999999999990e-03
5.166999999999999718e-03
5.155999999999999993e-03
5.237999999999999601e-03
5.303000000000000422e-03
5.249000000000000193e-03
5.164000000000000187e-03
5.152999999999999595e-03
5.242000000000000132e-03
5.300000000000000024e-03
5.255000000000000122e-03
5.177000000000000178e-03
5.164000000000000187e-03
5.244999999999999662e-03
5.310999999999999749e-03
5.263000000000000317e-03
5.180999999999999842e-03
5.171000000000000249e-03
5.263999999999999582e-03
5.324999999999999872e-03
5.271999999999999777e-03
5.190000000000000169e-03
5.185999999999999638e-03
5.272999999999999909e-03
5.337999999999999863e-03
5.292999999999999962e-03
5.213999999999999885e-03
5.211000000000000354e-03
5.308000000000000218e-03
5.372000000000000039e-03
5.333000000000000067e-03
5.257999999999999653e-03
5.259999999999999919e-03
5.356999999999999783e-03
5.432000000000000196e-03
5.394999999999999622e-03
5.322999999999999607e-03
5.322000000000000342e-03
5.428999999999999798e-03
5.497000000000000150e-03
5.465000000000000240e-03
5.393000000000000224e-03
5.383999999999999897e-03
5.479999999999999628e-03
5.551000000000000378e-03
5.511000000000000273e-03
5.424000000000000002e-03
5.406000000000000215e-03
5.479999999999999628e-03
5.525999999999999662e-03
5.458000000000000178e-03
5.355999999999999650e-03
5.323999999999999740e-03
5.387000000000000295e-03
5.426000000000000267e-03
5.357999999999999916e-03
5.251999999999999724e-03
5.224999999999999610e-03
5.296000000000000360e-03
5.344999999999999925e-03
5.285999999999999900e-03
5.191999999999999567e-03
5.178999999999999576e-03
5.255000000000000122e-03
5.310999999999999749e-03
5.262000000000000184e-03
5.171000000000000249e-03
5.155999999999999993e-03
5.244000000000000397e-03
5.302000000000000289e-03
5.253999999999999990e-03
5.168999999999999984e-03
5.151000000000000197e-03
5.233999999999999937e-03
5.300000000000000024e-03
5.252999999999999857e-03
5.170000000000000116e-03
5.152000000000000329e-03
5.238999999999999733e-03
5.303000000000000422e-03
5.256000000000000255e-03
5.167999999999999851e-03
5.153999999999999727e-03
5.237000000000000335e-03
5.301000000000000156e-03
5.256000000000000255e-03
5.165000000000000320e-03
5.153999999999999727e-03
5.236000000000000203e-03
5.295000000000000227e-03
5.245999999999999795e-03
5.159999999999999656e-03
5.144000000000000135e-03
5.224000000000000345e-03
5.288000000000000166e-03
5.238999999999999733e-03
5.154999999999999860e-03
5.146000000000000400e-03
5.224000000000000345e-03
5.288000000000000166e-03
5.244999999999999662e-03
5.157000000000000126e-03
5.140999999999999737e-03
5.224999999999999610e-03
5.290000000000000431e-03
5.244000000000000397e-03
5.151000000000000197e-03
5.138000000000000206e-03
5.223000000000000212e-03
5.282000000000000237e-03
5.240999999999999999e-03
5.153999999999999727e-03
5.133999999999999675e-03
5.217000000000000283e-03
5.290000000000000431e-03
5.240999999999999999e-03
5.148999999999999931e-03
5.128999999999999879e-03
5.215000000000000017e-03
5.279999999999999971e-03
5.232999999999999804e-03
5.144000000000000135e-03
5.133999999999999675e-03
5.218000000000000416e-03
5.276999999999999573e-03
5.231000000000000406e-03
5.143000000000000002e-03
5.130000000000000011e-03
5.213999999999999885e-03
5.278999999999999838e-03
5.232999999999999804e-03
5.143000000000000002e-03
5.132000000000000277e-03
5.217000000000000283e-03
5.281000000000000104e-03
5.230000000000000274e-03
5.146999999999999666e-03
5.130000000000000011e-03
5.211999999999999619e-03
5.277999999999999706e-03
5.236000000000000203e-03
5.152999999999999595e-03
5.139000000000000339e-03
5.219999999999999814e-03
5.282000000000000237e-03
5.244000000000000397e-03
5.159999999999999656e-03
5.133000000000000410e-03
5.216000000000000150e-03
5.278999999999999838e-03
5.237000000000000335e-03
5.153999999999999727e-03
5.137000000000000073e-03
5.215000000000000017e-03
5.284999999999999767e-03
5.244000000000000397e-03
5.152000000000000329e-03
5.137000000000000073e-03
5.218000000000000416e-03
5.282000000000000237e-03
5.237999999999999601e-03
5.150000000000000064e-03
5.133000000000000410e-03
5.215000000000000017e-03
5.279999999999999971e-03
5.237000000000000335e-03
5.150000000000000064e-03
5.128999999999999879e-03
5.204000000000000292e-03
5.275000000000000175e-03
5.239999999999999866e-03
5.151000000000000197e-03
5.127999999999999746e-03
5.211000000000000354e-03
5.276999999999999573e-03
5.238999999999999733e-03
5.153999999999999727e-03
5.132000000000000277e-03
5.209000000000000088e-03
5.276000000000000308e-03
5.233999999999999937e-03
5.146000000000000400e-03
5.126999999999999613e-03
5.207999999999999956e-03
5.276000000000000308e-03
5.233999999999999937e-03
5.146999999999999666e-03
5.127999999999999746e-03
5.206999999999999823e-03
5.275000000000000175e-03
5.237999999999999601e-03
5.153999999999999727e-03
5.131000000000000144e-03
5.207999999999999956e-03
5.279999999999999971e-03
5.235000000000000070e-03
5.146999999999999666e-03
5.127999999999999746e-03
5.206999999999999823e-03
5.271999999999999777e-03
5.229000000000000141e-03
5.143000000000000002e-03
5.124000000000000082e-03
5.203000000000000159e-03
5.272999999999999909e-03
5.231000000000000406e-03
5.146000000000000400e-03
5.122999999999999950e-03
5.198000000000000363e-03
5.270999999999999644e-03
5.230000000000000274e-03
5.141999999999999869e-03
5.115999999999999888e-03
5.194999999999999965e-03
5.263999999999999582e-03
5.228000000000000008e-03
5.141999999999999869e-03
5.125000000000000215e-03
5.200999999999999894e-03
5.270000000000000379e-03
5.231999999999999672e-03
5.134999999999999808e-03
5.105000000000000163e-03
5.194999999999999965e-03
5.274000000000000042e-03
5.243000000000000264e-03
5.173999999999999780e-03
5.168999999999999984e-03
5.255000000000000122e-03
5.308000000000000218e-03
5.261000000000000051e-03
5.173999999999999780e-03
5.159000000000000391e-03
5.259999999999999919e-03
5.351999999999999987e-03
5.323999999999999740e-03
5.225999999999999743e-03
5.191000000000000301e-03
5.258999999999999786e-03
5.320000000000000076e-03
5.274000000000000042e-03
5.181999999999999974e-03
5.148999999999999931e-03
5.211000000000000354e-03
5.263999999999999582e-03
5.222000000000000079e-03
5.128999999999999879e-03
5.108999999999999826e-03
5.186999999999999771e-03
5.258999999999999786e-03
5.220999999999999946e-03
5.131000000000000144e-03
5.108999999999999826e-03
5.179999999999999709e-03
5.246999999999999928e-03
5.207999999999999956e-03
5.078000000000000048e-03
4.981000000000000184e-03
5.019000000000000024e-03
5.130000000000000011e-03
5.120999999999999684e-03
5.133000000000000410e-03
5.392000000000000091e-03
5.839999999999999705e-03
6.263000000000000338e-03
6.642000000000000334e-03
6.720000000000000279e-03
6.451000000000000137e-03
6.244999999999999683e-03
6.010999999999999850e-03
5.688999999999999613e-03
5.407999999999999613e-03
5.283999999999999635e-03
5.296000000000000360e-03
5.329999999999999669e-03
5.282000000000000237e-03
5.199999999999999761e-03
5.166999999999999718e-03
5.230000000000000274e-03
5.291999999999999829e-03
5.251999999999999724e-03
5.158000000000000258e-03
5.126000000000000348e-03
5.205999999999999690e-03
5.277999999999999706e-03
5.238999999999999733e-03
5.143000000000000002e-03
5.118000000000000153e-03
5.191999999999999567e-03
5.268000000000000113e-03
5.231999999999999672e-03
5.141999999999999869e-03
5.114999999999999755e-03
5.189000000000000036e-03
5.258999999999999786e-03
5.224999999999999610e-03
5.133999999999999675e-03
5.105000000000000163e-03
5.179999999999999709e-03
5.256000000000000255e-03
5.226999999999999875e-03
5.139000000000000339e-03
5.111000000000000092e-03
5.191000000000000301e-03
5.263000000000000317e-03
5.225999999999999743e-03
5.139000000000000339e-03
5.113999999999999622e-03
5.192999999999999700e-03
5.265999999999999848e-03
5.231999999999999672e-03
5.147999999999999798e-03
5.128999999999999879e-03
5.206999999999999823e-03
5.278999999999999838e-03
5.252999999999999857e-03
5.165999999999999585e-03
5.139999999999999604e-03
5.218000000000000416e-03
5.298999999999999891e-03
5.276000000000000308e-03
5.193999999999999832e-03
5.166999999999999718e-03
5.245999999999999795e-03
5.327000000000000138e-03
5.309999999999999616e-03
5.231000000000000406e-03
5.213999999999999885e-03
5.301000000000000156e-03
5.381999999999999632e-03
5.361000000000000314e-03
5.283999999999999635e-03
5.270999999999999644e-03
5.357999999999999916e-03
5.441999999999999789e-03
5.418000000000000073e-03
5.344999999999999925e-03
5.337999999999999863e-03
5.422999999999999869e-03
5.503000000000000079e-03
5.479000000000000363e-03
5.386000000000000162e-03
5.348000000000000323e-03
5.414999999999999675e-03
5.473999999999999699e-03
5.420000000000000338e-03
5.307000000000000085e-03
5.257000000000000388e-03
5.304999999999999820e-03
5.355000000000000385e-03
5.302000000000000289e-03
5.198000000000000363e-03
5.146999999999999666e-03
5.206999999999999823e-03
5.264999999999999715e-03
5.224000000000000345e-03
5.135999999999999940e-03
5.100000000000000366e-03
5.165000000000000320e-03
5.239999999999999866e-03
5.200999999999999894e-03
5.106000000000000295e-03
5.080000000000000314e-03
5.150000000000000064e-03
5.222000000000000079e-03
5.190000000000000169e-03
5.098000000000000101e-03
5.068999999999999721e-03
5.143000000000000002e-03
5.211000000000000354e-03
5.179999999999999709e-03
5.094999999999999703e-03
5.067999999999999589e-03
5.143000000000000002e-03
5.218000000000000416e-03
5.187999999999999903e-03
5.093000000000000305e-03
5.061000000000000394e-03
5.127999999999999746e-03
5.197000000000000230e-03
5.168999999999999984e-03
5.078000000000000048e-03
5.048999999999999669e-03
5.122999999999999950e-03
5.204000000000000292e-03
5.166999999999999718e-03
5.072000000000000119e-03
5.045000000000000005e-03
5.114999999999999755e-03
5.185999999999999638e-03
5.155999999999999993e-03
5.060000000000000261e-03
5.039000000000000076e-03
5.111000000000000092e-03
5.185999999999999638e-03
5.160999999999999789e-03
5.073000000000000252e-03
5.042999999999999740e-03
5.115999999999999888e-03
5.190000000000000169e-03
5.160999999999999789e-03
5.067999999999999589e-03
5.036999999999999811e-03
5.106000000000000295e-03
5.183000000000000107e-03
5.152999999999999595e-03
5.060000000000000261e-03
5.027000000000000218e-03
5.101999999999999764e-03
5.174999999999999913e-03
5.147999999999999798e-03
5.055999999999999731e-03
5.011999999999999962e-03
5.088999999999999774e-03
5.172999999999999647e-03
5.145000000000000268e-03
5.055999999999999731e-03
5.024999999999999953e-03
5.098000000000000101e-03
5.170000000000000116e-03
5.139000000000000339e-03
5.048000000000000403e-03
5.009999999999999697e-03
5.085000000000000110e-03
5.164000000000000187e-03
5.134999999999999808e-03
5.041000000000000342e-03
5.010999999999999829e-03
5.087000000000000376e-03
5.160999999999999789e-03
5.135999999999999940e-03
5.046000000000000138e-03
5.014000000000000228e-03
5.085000000000000110e-03
5.159000000000000391e-03
5.127999999999999746e-03
5.040000000000000209e-03
5.011999999999999962e-03
5.085000000000000110e-03
5.157000000000000126e-03
5.125000000000000215e-03
5.028999999999999616e-03
5.002000000000000370e-03
5.073000000000000252e-03
5.152999999999999595e-03
5.131000000000000144e-03
5.040000000000000209e-03
5.001000000000000237e-03
5.068999999999999721e-03
5.146000000000000400e-03
5.117000000000000021e-03
5.029999999999999749e-03
4.994000000000000175e-03
5.062999999999999792e-03
5.141999999999999869e-03
5.114999999999999755e-03
5.022999999999999687e-03
4.989999999999999644e-03
5.060000000000000261e-03
5.139000000000000339e-03
5.115999999999999888e-03
5.022999999999999687e-03
4.987000000000000113e-03
5.054999999999999598e-03
5.131000000000000144e-03
5.099000000000000234e-03
5.011999999999999962e-03
4.974000000000000123e-03
5.039000000000000076e-03
5.118000000000000153e-03
5.095999999999999835e-03
5.009999999999999697e-03
4.971999999999999857e-03
5.041000000000000342e-03
5.113999999999999622e-03
5.086000000000000243e-03
5.002000000000000370e-03
4.964999999999999795e-03
5.034000000000000280e-03
5.107999999999999693e-03
5.081999999999999712e-03
4.993000000000000042e-03
4.956999999999999601e-03
5.028999999999999616e-03
5.106000000000000295e-03
5.085000000000000110e-03
4.990999999999999777e-03
4.954000000000000070e-03
5.022000000000000422e-03
5.096999999999999968e-03
5.078000000000000048e-03
4.984999999999999848e-03
4.944999999999999743e-03
5.014000000000000228e-03
5.087999999999999641e-03
5.073000000000000252e-03
4.981000000000000184e-03
4.938999999999999814e-03
5.014000000000000228e-03
5.104000000000000030e-03
5.102999999999999897e-03
5.024999999999999953e-03
4.991999999999999910e-03
5.065000000000000058e-03
5.134999999999999808e-03
5.107000000000000428e-03
5.020000000000000157e-03
4.998999999999999971e-03
5.089999999999999906e-03
5.184000000000000240e-03
5.154999999999999860e-03
5.049999999999999802e-03
5.002000000000000370e-03
5.061999999999999660e-03
5.135999999999999940e-03
5.107000000000000428e-03
5.001000000000000237e-03
4.943000000000000345e-03
5.002999999999999635e-03
5.081999999999999712e-03
5.054999999999999598e-03
4.961000000000000132e-03
4.919999999999999894e-03
4.991999999999999910e-03
5.067999999999999589e-03
5.046000000000000138e-03
4.954000000000000070e-03
4.917999999999999629e-03
4.990999999999999777e-03
5.069999999999999854e-03
5.022000000000000422e-03
4.862000000000000002e-03
4.754999999999999678e-03
4.836000000000000021e-03
4.943999999999999610e-03
4.964999999999999795e-03
5.089999999999999906e-03
5.420999999999999604e-03
5.869000000000000085e-03
6.331999999999999955e-03
6.645999999999999998e-03
6.418000000000000094e-03
6.104000000000000051e-03
5.872999999999999748e-03
5.632999999999999986e-03
5.383999999999999897e-03
5.167999999999999851e-03
5.061000000000000394e-03
5.078000000000000048e-03
5.143000000000000002e-03
5.126999999999999613e-03
5.028000000000000351e-03
4.980000000000000052e-03
5.037999999999999944e-03
5.114999999999999755e-03
5.087999999999999641e-03
4.994000000000000175e-03
4.950000000000000407e-03
5.019000000000000024e-03
5.105000000000000163e-03
5.085000000000000110e-03
4.990999999999999777e-03
4.948000000000000141e-03
5.014000000000000228e-03
5.092000000000000172e-03
5.080000000000000314e-03
4.988000000000000246e-03
4.944999999999999743e-03
5.010999999999999829e-03
5.086000000000000243e-03
5.066000000000000190e-03
4.972999999999999990e-03
4.937000000000000416e-03
5.007000000000000166e-03
5.081999999999999712e-03
5.062999999999999792e-03
4.977999999999999786e-03
4.941000000000000079e-03
5.007000000000000166e-03
5.089999999999999906e-03
5.076999999999999916e-03
4.987000000000000113e-03
4.939999999999999947e-03
5.002999999999999635e-03
5.083999999999999977e-03
5.073000000000000252e-03
4.982999999999999582e-03
4.947000000000000008e-03
5.010999999999999829e-03
5.098000000000000101e-03
5.083999999999999977e-03
4.997999999999999839e-03
4.959999999999999999e-03
5.028999999999999616e-03
5.113999999999999622e-03
5.100999999999999632e-03
5.022999999999999687e-03
4.984999999999999848e-03
5.050999999999999934e-03
5.131000000000000144e-03
5.126000000000000348e-03
5.049999999999999802e-03
5.022999999999999687e-03
5.100999999999999632e-03
5.193999999999999832e-03
5.187999999999999903e-03
5.107000000000000428e-03
5.087000000000000376e-03
5.167999999999999851e-03
5.256000000000000255e-03
5.257000000000000388e-03
5.180999999999999842e-03
5.150000000000000064e-03
5.219999999999999814e-03
5.304999999999999820e-03
5.296000000000000360e-03
5.198000000000000363e-03
5.140999999999999737e-03
5.187999999999999903e-03
5.246999999999999928e-03
5.210000000000000221e-03
5.100999999999999632e-03
5.032000000000000015e-03
5.075999999999999783e-03
5.134999999999999808e-03
5.095999999999999835e-03
4.988000000000000246e-03
4.930999999999999620e-03
4.980000000000000052e-03
5.052000000000000067e-03
5.028000000000000351e-03
4.931999999999999752e-03
4.887999999999999984e-03
4.949000000000000274e-03
5.032000000000000015e-03
5.013000000000000095e-03
4.917999999999999629e-03
4.876000000000000126e-03
4.937000000000000416e-03
5.015000000000000360e-03
4.996999999999999706e-03
4.911999999999999700e-03
4.871000000000000330e-03
4.935000000000000150e-03
5.014000000000000228e-03
5.002999999999999635e-03
4.910999999999999567e-03
4.870000000000000197e-03
4.934000000000000018e-03
5.010999999999999829e-03
4.994000000000000175e-03
4.900999999999999975e-03
4.856000000000000073e-03
4.922000000000000160e-03
5.002999999999999635e-03
4.993000000000000042e-03
4.899999999999999842e-03
4.856000000000000073e-03
4.919999999999999894e-03
4.998999999999999971e-03
4.989000000000000379e-03
4.902000000000000107e-03
4.850000000000000144e-03
4.918999999999999762e-03
5.002999999999999635e-03
4.989000000000000379e-03
4.899999999999999842e-03
4.857000000000000206e-03
4.918999999999999762e-03
4.997999999999999839e-03
4.987000000000000113e-03
4.905999999999999771e-03
4.863000000000000135e-03
4.922000000000000160e-03
5.002999999999999635e-03
4.989000000000000379e-03
4.892999999999999780e-03
4.847999999999999879e-03
4.921000000000000027e-03
5.002000000000000370e-03
4.983999999999999715e-03
4.891000000000000382e-03
4.850000000000000144e-03
4.910000000000000302e-03
5.000000000000000104e-03
4.987000000000000113e-03
4.899999999999999842e-03
4.852000000000000410e-03
4.913999999999999965e-03
5.000000000000000104e-03
4.989000000000000379e-03
4.900999999999999975e-03
4.858000000000000339e-03
4.921000000000000027e-03
5.003999999999999768e-03
4.998999999999999971e-03
4.912999999999999833e-03
4.865000000000000401e-03
4.928000000000000089e-03
5.010999999999999829e-03
5.003999999999999768e-03
4.912999999999999833e-03
4.867999999999999931e-03
4.934000000000000018e-03
5.021000000000000289e-03
5.015999999999999626e-03
4.917000000000000363e-03
4.878999999999999657e-03
4.944999999999999743e-03
5.027000000000000218e-03
5.013000000000000095e-03
4.929000000000000221e-03
4.884999999999999586e-03
4.949000000000000274e-03
5.035999999999999678e-03
5.019000000000000024e-03
4.929000000000000221e-03
4.880999999999999922e-03
4.950000000000000407e-03
5.035999999999999678e-03
5.021000000000000289e-03
4.932999999999999885e-03
4.884999999999999586e-03
4.950999999999999672e-03
5.035999999999999678e-03
5.026000000000000086e-03
4.938999999999999814e-03
4.891000000000000382e-03
4.948000000000000141e-03
5.026000000000000086e-03
5.013000000000000095e-03
4.930000000000000354e-03
4.883000000000000188e-03
4.944999999999999743e-03
5.032000000000000015e-03
5.021000000000000289e-03
4.934000000000000018e-03
4.889000000000000117e-03
4.945999999999999876e-03
5.028000000000000351e-03
5.024999999999999953e-03
4.932999999999999885e-03
4.886999999999999851e-03
4.950999999999999672e-03
5.028000000000000351e-03
5.016999999999999758e-03
4.928000000000000089e-03
4.884999999999999586e-03
4.948000000000000141e-03
5.026000000000000086e-03
5.009999999999999697e-03
4.921000000000000027e-03
4.871000000000000330e-03
4.932999999999999885e-03
5.015000000000000360e-03
5.001000000000000237e-03
4.911999999999999700e-03
4.866999999999999799e-03
4.929000000000000221e-03
5.016999999999999758e-03
5.002999999999999635e-03
4.910000000000000302e-03
4.869000000000000064e-03
4.943999999999999610e-03
5.046000000000000138e-03
5.054999999999999598e-03
4.971999999999999857e-03
4.915000000000000098e-03
4.968000000000000194e-03
5.047000000000000271e-03
5.054000000000000332e-03
4.987000000000000113e-03
4.963000000000000397e-03
5.028000000000000351e-03
5.094999999999999703e-03
5.069999999999999854e-03
4.971999999999999857e-03
4.921000000000000027e-03
4.974000000000000123e-03
5.048000000000000403e-03
5.022000000000000422e-03
4.917000000000000363e-03
4.858000000000000339e-03
4.911999999999999700e-03
4.990999999999999777e-03
4.983999999999999715e-03
4.892999999999999780e-03
4.847999999999999879e-03
4.910000000000000302e-03
4.995999999999999573e-03
4.989000000000000379e-03
4.899999999999999842e-03
4.853999999999999808e-03
4.903000000000000240e-03
4.930999999999999620e-03
4.846999999999999746e-03
4.736999999999999891e-03
4.728000000000000431e-03
4.810000000000000039e-03
5.041000000000000342e-03
5.359000000000000048e-03
5.675000000000000357e-03
5.994000000000000196e-03
6.466999999999999658e-03
6.531000000000000347e-03
6.233999999999999958e-03
5.858000000000000360e-03
5.480999999999999761e-03
5.291999999999999829e-03
5.235000000000000070e-03
5.160999999999999789e-03
5.017999999999999891e-03
4.939999999999999947e-03
4.995000000000000308e-03
5.083999999999999977e-03
5.068999999999999721e-03
4.965999999999999928e-03
4.910000000000000302e-03
4.965999999999999928e-03
5.043999999999999873e-03
5.030999999999999882e-03
4.941000000000000079e-03
4.889000000000000117e-03
4.943999999999999610e-03
5.023999999999999820e-03
5.019000000000000024e-03
4.937000000000000416e-03
4.879999999999999789e-03
4.932999999999999885e-03
5.020000000000000157e-03
5.011999999999999962e-03
4.924000000000000425e-03
4.878999999999999657e-03
4.932999999999999885e-03
5.015999999999999626e-03
5.009999999999999697e-03
4.918999999999999762e-03
4.867999999999999931e-03
4.919999999999999894e-03
5.006000000000000033e-03
5.000000000000000104e-03
4.913999999999999965e-03
4.862000000000000002e-03
4.919999999999999894e-03
5.008000000000000299e-03
5.001000000000000237e-03
4.906999999999999904e-03
4.864000000000000268e-03
4.917999999999999629e-03
5.003999999999999768e-03
5.003999999999999768e-03
4.917000000000000363e-03
4.870000000000000197e-03
4.924999999999999691e-03
5.009999999999999697e-03
5.011999999999999962e-03
4.932999999999999885e-03
4.884999999999999586e-03
4.947000000000000008e-03
5.028999999999999616e-03
5.024999999999999953e-03
4.943000000000000345e-03
4.900999999999999975e-03
4.965999999999999928e-03
5.061999999999999660e-03
5.070999999999999987e-03
4.996999999999999706e-03
4.956999999999999601e-03
5.022000000000000422e-03
5.119000000000000286e-03
5.132000000000000277e-03
5.054999999999999598e-03
5.013000000000000095e-03
5.082999999999999845e-03
5.181999999999999974e-03
5.189000000000000036e-03
5.112000000000000224e-03
5.061999999999999660e-03
5.115999999999999888e-03
5.194999999999999965e-03
5.183000000000000107e-03
5.081999999999999712e-03
5.011999999999999962e-03
5.043999999999999873e-03
5.100999999999999632e-03
5.080000000000000314e-03
4.968000000000000194e-03
4.891999999999999647e-03
4.925999999999999823e-03
4.995000000000000308e-03
4.976999999999999653e-03
4.877000000000000259e-03
4.808999999999999907e-03
4.857000000000000206e-03
4.939999999999999947e-03
4.930999999999999620e-03
4.833999999999999755e-03
4.786000000000000323e-03
4.839000000000000419e-03
4.924999999999999691e-03
4.924000000000000425e-03
4.833999999999999755e-03
4.782999999999999925e-03
4.838000000000000286e-03
4.924999999999999691e-03
4.921000000000000027e-03
4.825000000000000296e-03
4.768999999999999802e-03
4.820999999999999765e-03
4.902000000000000107e-03
4.905999999999999771e-03
4.821999999999999897e-03
4.764000000000000005e-03
4.813999999999999703e-03
4.899999999999999842e-03
4.903000000000000240e-03
4.807999999999999774e-03
4.754000000000000413e-03
4.806000000000000376e-03
4.892999999999999780e-03
4.890000000000000249e-03
4.801999999999999845e-03
4.747000000000000351e-03
4.801999999999999845e-03
4.884999999999999586e-03
4.882000000000000055e-03
4.794999999999999783e-03
4.736999999999999891e-03
4.786999999999999589e-03
4.878999999999999657e-03
4.877000000000000259e-03
4.792000000000000252e-03
4.735999999999999759e-03
4.784000000000000058e-03
4.871000000000000330e-03
4.867999999999999931e-03
4.776999999999999996e-03
4.728999999999999697e-03
4.779000000000000262e-03
4.860999999999999870e-03
4.863000000000000135e-03
4.774999999999999731e-03
4.721999999999999635e-03
4.775999999999999863e-03
4.858999999999999604e-03
4.858999999999999604e-03
4.771000000000000067e-03
4.714000000000000308e-03
4.767999999999999669e-03
4.852999999999999675e-03
4.851000000000000277e-03
4.764000000000000005e-03
4.708999999999999644e-03
4.759000000000000209e-03
4.839999999999999684e-03
4.840999999999999817e-03
4.754000000000000413e-03
4.695999999999999654e-03
4.749999999999999882e-03
4.836000000000000021e-03
4.828999999999999959e-03
4.746000000000000218e-03
4.690999999999999857e-03
4.738000000000000024e-03
4.821999999999999897e-03
4.819999999999999632e-03
4.722999999999999768e-03
4.675000000000000336e-03
4.732000000000000095e-03
4.814999999999999836e-03
4.819000000000000367e-03
4.733000000000000228e-03
4.682000000000000398e-03
4.728000000000000431e-03
4.810000000000000039e-03
4.811000000000000172e-03
4.725000000000000033e-03
4.669999999999999672e-03
4.721000000000000370e-03
4.800999999999999712e-03
4.805000000000000243e-03
4.717999999999999972e-03
4.661000000000000212e-03
4.714999999999999573e-03
4.800999999999999712e-03
4.801999999999999845e-03
4.710999999999999910e-03
4.656000000000000416e-03
4.712000000000000043e-03
4.801999999999999845e-03
4.801999999999999845e-03
4.708000000000000379e-03
4.656000000000000416e-03
4.712000000000000043e-03
4.798000000000000181e-03
4.797000000000000049e-03
4.704999999999999981e-03
4.650999999999999752e-03
4.701999999999999583e-03
4.780999999999999660e-03
4.786999999999999589e-03
4.701000000000000317e-03
4.643000000000000425e-03
4.696999999999999786e-03
4.785000000000000191e-03
4.787999999999999722e-03
4.699000000000000052e-03
4.640000000000000027e-03
4.689999999999999725e-03
4.780000000000000394e-03
4.781999999999999792e-03
4.694000000000000256e-03
4.637999999999999762e-03
4.686000000000000061e-03
4.773000000000000333e-03
4.775999999999999863e-03
4.691999999999999990e-03
4.631999999999999833e-03
4.682999999999999663e-03
4.766000000000000271e-03
4.769999999999999934e-03
4.676999999999999734e-03
4.618999999999999842e-03
4.682000000000000398e-03
4.771000000000000067e-03
4.772000000000000200e-03
4.682999999999999663e-03
4.629000000000000302e-03
4.688999999999999592e-03
4.793000000000000385e-03
4.808999999999999907e-03
4.734999999999999626e-03
4.681000000000000265e-03
4.730999999999999962e-03
4.810000000000000039e-03
4.808999999999999907e-03
4.739000000000000157e-03
4.706000000000000114e-03
4.778000000000000129e-03
4.863000000000000135e-03
4.849000000000000012e-03
4.748999999999999749e-03
4.681000000000000265e-03
4.732000000000000095e-03
4.815999999999999968e-03
4.812000000000000305e-03
4.714000000000000308e-03
4.640000000000000027e-03
4.682000000000000398e-03
4.762999999999999873e-03
4.760999999999999607e-03
4.678999999999999999e-03
4.623000000000000373e-03
4.676999999999999734e-03
4.762999999999999873e-03
4.769999999999999934e-03
4.683999999999999796e-03
4.630999999999999700e-03
4.680000000000000132e-03
4.749999999999999882e-03
4.693000000000000123e-03
4.538000000000000367e-03
4.474999999999999811e-03
4.564999999999999614e-03
4.684999999999999928e-03
4.867999999999999931e-03
5.119000000000000286e-03
5.434999999999999727e-03
5.857000000000000227e-03
6.344999999999999946e-03
6.302000000000000310e-03
5.934000000000000039e-03
5.596000000000000280e-03
5.320000000000000076e-03
5.161999999999999922e-03
5.021000000000000289e-03
4.856000000000000073e-03
4.742999999999999820e-03
4.760999999999999607e-03
4.849000000000000012e-03
4.858999999999999604e-03
4.764000000000000005e-03
4.694000000000000256e-03
4.741999999999999688e-03
4.823000000000000030e-03
4.821999999999999897e-03
4.739000000000000157e-03
4.675000000000000336e-03
4.719000000000000104e-03
4.800999999999999712e-03
4.806999999999999641e-03
4.727000000000000299e-03
4.667000000000000141e-03
4.714000000000000308e-03
4.805000000000000243e-03
4.808999999999999907e-03
4.726000000000000166e-03
4.669000000000000407e-03
4.710999999999999910e-03
4.799000000000000314e-03
4.811000000000000172e-03
4.721999999999999635e-03
4.657999999999999814e-03
4.701999999999999583e-03
4.788999999999999854e-03
4.804000000000000110e-03
4.714000000000000308e-03
4.654000000000000151e-03
4.704999999999999981e-03
4.791000000000000120e-03
4.797000000000000049e-03
4.715999999999999706e-03
4.656999999999999681e-03
4.701999999999999583e-03
4.791000000000000120e-03
4.801999999999999845e-03
4.716999999999999839e-03
4.658999999999999947e-03
4.704999999999999981e-03
4.802999999999999978e-03
4.819999999999999632e-03
4.739000000000000157e-03
4.674000000000000203e-03
4.725000000000000033e-03
4.817000000000000101e-03
4.836000000000000021e-03
4.759000000000000209e-03
4.702999999999999715e-03
4.761999999999999740e-03
4.856000000000000073e-03
4.872999999999999728e-03
4.804000000000000110e-03
4.754999999999999678e-03
4.813999999999999703e-03
4.915000000000000098e-03
4.937000000000000416e-03
4.869000000000000064e-03
4.819999999999999632e-03
4.879999999999999789e-03
4.976999999999999653e-03
4.994000000000000175e-03
4.923000000000000292e-03
4.866999999999999799e-03
4.926999999999999956e-03
5.015000000000000360e-03
5.017999999999999891e-03
4.915000000000000098e-03
4.837000000000000154e-03
4.865000000000000401e-03
4.937999999999999681e-03
4.921000000000000027e-03
4.813999999999999703e-03
4.732000000000000095e-03
4.754000000000000413e-03
4.819000000000000367e-03
4.812999999999999570e-03
4.714999999999999573e-03
4.640000000000000027e-03
4.674000000000000203e-03
4.758000000000000076e-03
4.761999999999999740e-03
4.669999999999999672e-03
4.604999999999999719e-03
4.647000000000000089e-03
4.734000000000000360e-03
4.746000000000000218e-03
4.660000000000000080e-03
4.597999999999999657e-03
4.640000000000000027e-03
4.734999999999999626e-03
4.749999999999999882e-03
4.662000000000000345e-03
4.595000000000000126e-03
4.644999999999999823e-03
4.732000000000000095e-03
4.741999999999999688e-03
4.655000000000000283e-03
4.590999999999999595e-03
4.636000000000000364e-03
4.721000000000000370e-03
4.729999999999999830e-03
4.643999999999999691e-03
4.578999999999999737e-03
4.627000000000000036e-03
4.719000000000000104e-03
4.728999999999999697e-03
4.645999999999999956e-03
4.578999999999999737e-03
4.621000000000000107e-03
4.713000000000000175e-03
4.722999999999999768e-03
4.641000000000000160e-03
4.581000000000000003e-03
4.623999999999999638e-03
4.709999999999999777e-03
4.721999999999999635e-03
4.642000000000000293e-03
4.581000000000000003e-03
4.617999999999999709e-03
4.710999999999999910e-03
4.721000000000000370e-03
4.632999999999999965e-03
4.571000000000000410e-03
4.619999999999999975e-03
4.703999999999999848e-03
4.710999999999999910e-03
4.622000000000000240e-03
4.563000000000000216e-03
4.610000000000000382e-03
4.702999999999999715e-03
4.708999999999999644e-03
4.627000000000000036e-03
4.571000000000000410e-03
4.610999999999999648e-03
4.699000000000000052e-03
4.703999999999999848e-03
4.616999999999999577e-03
4.558000000000000419e-03
4.601000000000000055e-03
4.691999999999999990e-03
4.702999999999999715e-03
4.617999999999999709e-03
4.559999999999999817e-03
4.604999999999999719e-03
4.693000000000000123e-03
4.699000000000000052e-03
4.610999999999999648e-03
4.553999999999999888e-03
4.592999999999999861e-03
4.683999999999999796e-03
4.696999999999999786e-03
4.614000000000000046e-03
4.549000000000000092e-03
4.591999999999999728e-03
4.680000000000000132e-03
4.686000000000000061e-03
4.603999999999999586e-03
4.543000000000000163e-03
4.585999999999999799e-03
4.677999999999999867e-03
4.693000000000000123e-03
4.611999999999999780e-03
4.546999999999999827e-03
4.583000000000000268e-03
4.671999999999999938e-03
4.683999999999999796e-03
4.597000000000000391e-03
4.532999999999999703e-03
4.582000000000000135e-03
4.675999999999999601e-03
4.682999999999999663e-03
4.596000000000000259e-03
4.531999999999999570e-03
4.571000000000000410e-03
4.668000000000000274e-03
4.678999999999999999e-03
4.593999999999999993e-03
4.526999999999999774e-03
4.566999999999999879e-03
4.662000000000000345e-03
4.676999999999999734e-03
4.589000000000000197e-03
4.525000000000000376e-03
4.569000000000000145e-03
4.658999999999999947e-03
4.667000000000000141e-03
4.583000000000000268e-03
4.525000000000000376e-03
4.570000000000000277e-03
4.660000000000000080e-03
4.677999999999999867e-03
4.590999999999999595e-03
4.531999999999999570e-03
4.569000000000000145e-03
4.656000000000000416e-03
4.668000000000000274e-03
4.584000000000000401e-03
4.519999999999999712e-03
4.559999999999999817e-03
4.649000000000000354e-03
4.668000000000000274e-03
4.584000000000000401e-03
4.523000000000000111e-03
4.566999999999999879e-03
4.649999999999999620e-03
4.666000000000000009e-03
4.584999999999999666e-03
4.521999999999999978e-03
4.562000000000000083e-03
4.656999999999999681e-03
4.688000000000000327e-03
4.617999999999999709e-03
4.568000000000000012e-03
4.610000000000000382e-03
4.701999999999999583e-03
4.713000000000000175e-03
4.623000000000000373e-03
4.566999999999999879e-03
4.631999999999999833e-03
4.746000000000000218e-03
4.772000000000000200e-03
4.683999999999999796e-03
4.605999999999999851e-03
4.632999999999999965e-03
4.709999999999999777e-03
4.716999999999999839e-03
4.624999999999999771e-03
4.555000000000000021e-03
4.573999999999999941e-03
4.643999999999999691e-03
4.657999999999999814e-03
4.573999999999999941e-03
4.503000000000000058e-03
4.544000000000000296e-03
4.634000000000000098e-03
4.645999999999999956e-03
4.563000000000000216e-03
4.501999999999999925e-03
4.544000000000000296e-03
4.630999999999999700e-03
4.637999999999999762e-03
4.525999999999999641e-03
4.388000000000000407e-03
4.366000000000000089e-03
4.481999999999999873e-03
4.526999999999999774e-03
4.507999999999999854e-03
4.688999999999999592e-03
5.106000000000000295e-03
5.571999999999999696e-03
5.994000000000000196e-03
6.156000000000000014e-03
5.857000000000000227e-03
5.611999999999999801e-03
5.398000000000000020e-03
5.117000000000000021e-03
4.832999999999999623e-03
4.666000000000000009e-03
4.651999999999999885e-03
4.696999999999999786e-03
4.699000000000000052e-03
4.618999999999999842e-03
4.553999999999999888e-03
4.581000000000000003e-03
4.655000000000000283e-03
4.660000000000000080e-03
4.570000000000000277e-03
4.501999999999999925e-03
4.538999999999999632e-03
4.629999999999999567e-03
4.645999999999999956e-03
4.559999999999999817e-03
4.493999999999999731e-03
4.529000000000000040e-03
4.623000000000000373e-03
4.640000000000000027e-03
4.555000000000000021e-03
4.486999999999999669e-03
4.514999999999999916e-03
4.609000000000000249e-03
4.632999999999999965e-03
4.543000000000000163e-03
4.473999999999999679e-03
4.517000000000000182e-03
4.605999999999999851e-03
4.622000000000000240e-03
4.542000000000000030e-03
4.473999999999999679e-03
4.508999999999999987e-03
4.598999999999999790e-03
4.618999999999999842e-03
4.532999999999999703e-03
4.468999999999999882e-03
4.512000000000000385e-03
4.602000000000000188e-03
4.623000000000000373e-03
4.533999999999999836e-03
4.465000000000000219e-03
4.506999999999999722e-03
4.597999999999999657e-03
4.622000000000000240e-03
4.551000000000000358e-03
4.484000000000000138e-03
4.529000000000000040e-03
4.621000000000000107e-03
4.640000000000000027e-03
4.564999999999999614e-03
4.506999999999999722e-03
4.552999999999999756e-03
4.647000000000000089e-03
4.675999999999999601e-03
4.602000000000000188e-03
4.547999999999999959e-03
4.597999999999999657e-03
4.707000000000000246e-03
4.736999999999999891e-03
4.662000000000000345e-03
4.610999999999999648e-03
4.661000000000000212e-03
4.766000000000000271e-03
4.799000000000000314e-03
4.726000000000000166e-03
4.673000000000000070e-03
4.721000000000000370e-03
4.819999999999999632e-03
4.843000000000000083e-03
4.759000000000000209e-03
4.684999999999999928e-03
4.706000000000000114e-03
4.774999999999999731e-03
4.778000000000000129e-03
4.671999999999999938e-03
4.579999999999999870e-03
4.590999999999999595e-03
4.661000000000000212e-03
4.664999999999999876e-03
4.562000000000000083e-03
4.479999999999999608e-03
4.499999999999999660e-03
4.576000000000000206e-03
4.590000000000000330e-03
4.498000000000000262e-03
4.428999999999999777e-03
4.466000000000000351e-03
4.550000000000000225e-03
4.564999999999999614e-03
4.484000000000000138e-03
4.420000000000000318e-03
4.453000000000000361e-03
4.539999999999999765e-03
4.559999999999999817e-03
4.474999999999999811e-03
4.409999999999999858e-03
4.445000000000000166e-03
4.536000000000000101e-03
4.558000000000000419e-03
4.473000000000000413e-03
4.408999999999999725e-03
4.445000000000000166e-03
4.529000000000000040e-03
4.553999999999999888e-03
4.472000000000000280e-03
4.401999999999999663e-03
4.436999999999999972e-03
4.525999999999999641e-03
4.543000000000000163e-03
4.466000000000000351e-03
4.396999999999999867e-03
4.433999999999999574e-03
4.524000000000000243e-03
4.543000000000000163e-03
4.461999999999999821e-03
4.394999999999999601e-03
4.431000000000000043e-03
4.521999999999999978e-03
4.540999999999999898e-03
4.460999999999999688e-03
4.400000000000000265e-03
4.436999999999999972e-03
4.520999999999999845e-03
4.540999999999999898e-03
4.460000000000000422e-03
4.394000000000000336e-03
4.429999999999999910e-03
4.521999999999999978e-03
4.542000000000000030e-03
4.455999999999999892e-03
4.383999999999999876e-03
4.420999999999999583e-03
4.518999999999999580e-03
4.538000000000000367e-03
4.455999999999999892e-03
4.381999999999999611e-03
4.414000000000000389e-03
4.508999999999999987e-03
4.531999999999999570e-03
4.448999999999999830e-03
4.386000000000000142e-03
4.418000000000000052e-03
4.507999999999999854e-03
4.532999999999999703e-03
4.447000000000000432e-03
4.380000000000000213e-03
4.415999999999999787e-03
4.505000000000000324e-03
4.526999999999999774e-03
4.444000000000000034e-03
4.374000000000000284e-03
4.406000000000000194e-03
4.488999999999999935e-03
4.518999999999999580e-03
4.435999999999999839e-03
4.368999999999999620e-03
4.406000000000000194e-03
4.495999999999999996e-03
4.521999999999999978e-03
4.435999999999999839e-03
4.368000000000000355e-03
4.400000000000000265e-03
4.492999999999999598e-03
4.513999999999999783e-03
4.433000000000000308e-03
4.363999999999999824e-03
4.399000000000000132e-03
4.488999999999999935e-03
4.507999999999999854e-03
4.429999999999999910e-03
4.361000000000000293e-03
4.393000000000000203e-03
4.487999999999999802e-03
4.508999999999999987e-03
4.427000000000000379e-03
4.357999999999999895e-03
4.388999999999999672e-03
4.488999999999999935e-03
4.506999999999999722e-03
4.427000000000000379e-03
4.355999999999999629e-03
4.389999999999999805e-03
4.479999999999999608e-03
4.497000000000000129e-03
4.419000000000000185e-03
4.359000000000000027e-03
4.393000000000000203e-03
4.477000000000000077e-03
4.499000000000000395e-03
4.420999999999999583e-03
4.348999999999999568e-03
4.386000000000000142e-03
4.475999999999999944e-03
4.494999999999999864e-03
4.418000000000000052e-03
4.350999999999999833e-03
4.381999999999999611e-03
4.467999999999999750e-03
4.486000000000000404e-03
4.414000000000000389e-03
4.348999999999999568e-03
4.376999999999999814e-03
4.462999999999999953e-03
4.487999999999999802e-03
4.410999999999999990e-03
4.348999999999999568e-03
4.400000000000000265e-03
4.510000000000000120e-03
4.545000000000000429e-03
4.471000000000000148e-03
4.392000000000000071e-03
4.415999999999999787e-03
4.503000000000000058e-03
4.536000000000000101e-03
4.474999999999999811e-03
4.432000000000000176e-03
4.473999999999999679e-03
4.545999999999999694e-03
4.553999999999999888e-03
4.466999999999999617e-03
4.389999999999999805e-03
4.412000000000000123e-03
4.498000000000000262e-03
4.507999999999999854e-03
4.408999999999999725e-03
4.331999999999999913e-03
4.355999999999999629e-03
4.440999999999999635e-03
4.466999999999999617e-03
4.385000000000000009e-03
4.314000000000000126e-03
4.346000000000000037e-03
4.433999999999999574e-03
4.455999999999999892e-03
4.383999999999999876e-03
4.314000000000000126e-03
4.336999999999999710e-03
4.393000000000000203e-03
4.344999999999999904e-03
4.216000000000000129e-03
4.179999999999999688e-03
4.237999999999999580e-03
4.408999999999999725e-03
4.691999999999999990e-03
4.984999999999999848e-03
5.270999999999999644e-03
5.706000000000000134e-03
6.028999999999999637e-03
5.819000000000000387e-03
5.453000000000000382e-03
5.078000000000000048e-03
4.817000000000000101e-03
4.713000000000000175e-03
4.635000000000000231e-03
4.495999999999999996e-03
4.385000000000000009e-03
4.405000000000000061e-03
4.505999999999999589e-03
4.527999999999999907e-03
4.429999999999999910e-03
4.347000000000000169e-03
4.367000000000000222e-03
4.457000000000000024e-03
4.480999999999999740e-03
4.400000000000000265e-03
4.328000000000000250e-03
4.360000000000000160e-03
4.451000000000000095e-03
4.473999999999999679e-03
4.398000000000000000e-03
4.325999999999999984e-03
4.350999999999999833e-03
4.446000000000000299e-03
4.474999999999999811e-03
4.395999999999999734e-03
4.321000000000000188e-03
4.350999999999999833e-03
4.445000000000000166e-03
4.468999999999999882e-03
4.387000000000000274e-03
4.317999999999999790e-03
4.348000000000000302e-03
4.435999999999999839e-03
4.465000000000000219e-03
4.390999999999999938e-03
4.315000000000000259e-03
4.343999999999999771e-03
4.434999999999999706e-03
4.467999999999999750e-03
4.392000000000000071e-03
4.323999999999999719e-03
4.348999999999999568e-03
4.440999999999999635e-03
4.473000000000000413e-03
4.403999999999999929e-03
4.333000000000000046e-03
4.362000000000000426e-03
4.457000000000000024e-03
4.488999999999999935e-03
4.418000000000000052e-03
4.349999999999999700e-03
4.383999999999999876e-03
4.479999999999999608e-03
4.516000000000000049e-03
4.446000000000000299e-03
4.381999999999999611e-03
4.418000000000000052e-03
4.514999999999999916e-03
4.558999999999999685e-03
4.491000000000000200e-03
4.435999999999999839e-03
4.477000000000000077e-03
4.584999999999999666e-03
4.628000000000000169e-03
4.559999999999999817e-03
4.494999999999999864e-03
4.538999999999999632e-03
4.642000000000000293e-03
4.682000000000000398e-03
4.614000000000000046e-03
4.551999999999999623e-03
4.579999999999999870e-03
4.667000000000000141e-03
4.688999999999999592e-03
4.595000000000000126e-03
4.505999999999999589e-03
4.512000000000000385e-03
4.581000000000000003e-03
4.590999999999999595e-03
4.490000000000000067e-03
4.399000000000000132e-03
4.405000000000000061e-03
4.479000000000000342e-03
4.499000000000000395e-03
4.410999999999999990e-03
4.324999999999999852e-03
4.342999999999999639e-03
4.427000000000000379e-03
4.454999999999999759e-03
4.374000000000000284e-03
4.300000000000000003e-03
4.325999999999999984e-03
4.419000000000000185e-03
4.446000000000000299e-03
4.368000000000000355e-03
4.295000000000000207e-03
4.321000000000000188e-03
4.410999999999999990e-03
4.440999999999999635e-03
4.368000000000000355e-03
4.294000000000000074e-03
4.318999999999999923e-03
4.409999999999999858e-03
4.440000000000000370e-03
4.362000000000000426e-03
4.292999999999999941e-03
4.320000000000000055e-03
4.407000000000000327e-03
4.438000000000000105e-03
4.360000000000000160e-03
4.281000000000000083e-03
4.307000000000000065e-03
4.400000000000000265e-03
4.433999999999999574e-03
4.363999999999999824e-03
4.290000000000000410e-03
4.314000000000000126e-03
4.401999999999999663e-03
4.432000000000000176e-03
4.357999999999999895e-03
4.287000000000000012e-03
4.315000000000000259e-03
4.405000000000000061e-03
4.432000000000000176e-03
4.360000000000000160e-03
4.287000000000000012e-03
4.312999999999999994e-03
4.400000000000000265e-03
4.433000000000000308e-03
4.357999999999999895e-03
4.284999999999999747e-03
4.309000000000000330e-03
4.399000000000000132e-03
4.426000000000000247e-03
4.353000000000000098e-03
4.283000000000000348e-03
4.309999999999999595e-03
4.399000000000000132e-03
4.421999999999999716e-03
4.344999999999999904e-03
4.272999999999999889e-03
4.302000000000000268e-03
4.389999999999999805e-03
4.421999999999999716e-03
4.344999999999999904e-03
4.270999999999999623e-03
4.294000000000000074e-03
4.387000000000000274e-03
4.416999999999999919e-03
4.342999999999999639e-03
4.268000000000000092e-03
4.290999999999999676e-03
4.382999999999999743e-03
4.418000000000000052e-03
4.342999999999999639e-03
4.266999999999999960e-03
4.290000000000000410e-03
4.385000000000000009e-03
4.419000000000000185e-03
4.343999999999999771e-03
4.266999999999999960e-03
4.292999999999999941e-03
4.385000000000000009e-03
4.415999999999999787e-03
4.343999999999999771e-03
4.269000000000000225e-03
4.291999999999999808e-03
4.380000000000000213e-03
4.412000000000000123e-03
4.335999999999999577e-03
4.262000000000000163e-03
4.284999999999999747e-03
4.370999999999999885e-03
4.407000000000000327e-03
4.334000000000000179e-03
4.263000000000000296e-03
4.285999999999999879e-03
4.373000000000000151e-03
4.403999999999999929e-03
4.328000000000000250e-03
4.255000000000000102e-03
4.277999999999999685e-03
4.376999999999999814e-03
4.407999999999999592e-03
4.331999999999999913e-03
4.256000000000000234e-03
4.276000000000000287e-03
4.368999999999999620e-03
4.403999999999999929e-03
4.329999999999999648e-03
4.257000000000000367e-03
4.277999999999999685e-03
4.370999999999999885e-03
4.406000000000000194e-03
4.330999999999999781e-03
4.257000000000000367e-03
4.279999999999999950e-03
4.369999999999999753e-03
4.406000000000000194e-03
4.329000000000000382e-03
4.261000000000000031e-03
4.282000000000000216e-03
4.374000000000000284e-03
4.407999999999999592e-03
4.333000000000000046e-03
4.258999999999999765e-03
4.283000000000000348e-03
4.385000000000000009e-03
4.416999999999999919e-03
4.340000000000000108e-03
4.259999999999999898e-03
4.282000000000000216e-03
4.374000000000000284e-03
4.416999999999999919e-03
4.355999999999999629e-03
4.298999999999999870e-03
4.337999999999999842e-03
4.439000000000000237e-03
4.480999999999999740e-03
4.396999999999999867e-03
4.316999999999999657e-03
4.341000000000000240e-03
4.445000000000000166e-03
4.499999999999999660e-03
4.451000000000000095e-03
4.374000000000000284e-03
4.380000000000000213e-03
4.454999999999999759e-03
4.479999999999999608e-03
4.401999999999999663e-03
4.318999999999999923e-03
4.334000000000000179e-03
4.405000000000000061e-03
4.421999999999999716e-03
4.338999999999999975e-03
4.266999999999999960e-03
4.282000000000000216e-03
4.366000000000000089e-03
4.409999999999999858e-03
4.333000000000000046e-03
4.257999999999999632e-03
4.276000000000000287e-03
4.367000000000000222e-03
4.407000000000000327e-03
4.335999999999999577e-03
4.248000000000000040e-03
4.219999999999999793e-03
4.237000000000000315e-03
4.238999999999999713e-03
4.204000000000000271e-03
4.155999999999999972e-03
4.307000000000000065e-03
4.702999999999999715e-03
5.120999999999999684e-03
5.401000000000000419e-03
5.747999999999999637e-03
5.837000000000000174e-03
5.656999999999999702e-03
5.418000000000000073e-03
5.023999999999999820e-03
4.678999999999999999e-03
4.527999999999999907e-03
4.525000000000000376e-03
4.499000000000000395e-03
4.393000000000000203e-03
4.321000000000000188e-03
4.342000000000000373e-03
4.420999999999999583e-03
4.445000000000000166e-03
4.363999999999999824e-03
4.288000000000000145e-03
4.301000000000000136e-03
4.388000000000000407e-03
4.420999999999999583e-03
4.346000000000000037e-03
4.268000000000000092e-03
4.281000000000000083e-03
4.376999999999999814e-03
4.412000000000000123e-03
4.338999999999999975e-03
4.258999999999999765e-03
4.277999999999999685e-03
4.369999999999999753e-03
4.407999999999999592e-03
4.330999999999999781e-03
4.251999999999999703e-03
4.270999999999999623e-03
4.366000000000000089e-03
4.402999999999999796e-03
4.329000000000000382e-03
4.246999999999999907e-03
4.274000000000000021e-03
4.368000000000000355e-03
4.400000000000000265e-03
4.328000000000000250e-03
4.250999999999999571e-03
4.264999999999999694e-03
4.355999999999999629e-03
4.394000000000000336e-03
4.322000000000000321e-03
4.249000000000000173e-03
4.274000000000000021e-03
4.367000000000000222e-03
4.402999999999999796e-03
4.334000000000000179e-03
4.262000000000000163e-03
4.285999999999999879e-03
4.376999999999999814e-03
4.420999999999999583e-03
4.355000000000000364e-03
4.283999999999999614e-03
4.309000000000000330e-03
4.405000000000000061e-03
4.451000000000000095e-03
4.388000000000000407e-03
4.324999999999999852e-03
4.357999999999999895e-03
4.461999999999999821e-03
4.506999999999999722e-03
4.451000000000000095e-03
4.394000000000000336e-03
4.420000000000000318e-03
4.519999999999999712e-03
4.573999999999999941e-03
4.512000000000000385e-03
4.454999999999999759e-03
4.484000000000000138e-03
4.581000000000000003e-03
4.631999999999999833e-03
4.569000000000000145e-03
4.490000000000000067e-03
4.505000000000000324e-03
4.588000000000000064e-03
4.605999999999999851e-03
4.516000000000000049e-03
4.420000000000000318e-03
4.414000000000000389e-03
4.481999999999999873e-03
4.499999999999999660e-03
4.409999999999999858e-03
4.315000000000000259e-03
4.308000000000000197e-03
4.385000000000000009e-03
4.414000000000000389e-03
4.335000000000000311e-03
4.246999999999999907e-03
4.259999999999999898e-03
4.348000000000000302e-03
4.386000000000000142e-03
4.314000000000000126e-03
4.236000000000000182e-03
4.250000000000000305e-03
4.338999999999999975e-03
4.381999999999999611e-03
4.314000000000000126e-03
4.240999999999999978e-03
4.257999999999999632e-03
4.343999999999999771e-03
4.377999999999999947e-03
4.309000000000000330e-03
4.235000000000000049e-03
4.250999999999999571e-03
4.342999999999999639e-03
4.380000000000000213e-03
4.310999999999999728e-03
4.231999999999999651e-03
4.249000000000000173e-03
4.338999999999999975e-03
4.376999999999999814e-03
4.309999999999999595e-03
4.231000000000000386e-03
4.253999999999999969e-03
4.346000000000000037e-03
4.375999999999999682e-03
4.302000000000000268e-03
4.225999999999999722e-03
4.242000000000000111e-03
4.331999999999999913e-03
4.374000000000000284e-03
4.303000000000000401e-03
4.225999999999999722e-03
4.239999999999999845e-03
4.328000000000000250e-03
4.369999999999999753e-03
4.296999999999999605e-03
4.220999999999999926e-03
4.238999999999999713e-03
4.329999999999999648e-03
4.368999999999999620e-03
4.298999999999999870e-03
4.218000000000000395e-03
4.236000000000000182e-03
4.322999999999999586e-03
4.363999999999999824e-03
4.296999999999999605e-03
4.218999999999999660e-03
4.231999999999999651e-03
4.321000000000000188e-03
4.361000000000000293e-03
4.291999999999999808e-03
4.213999999999999864e-03
4.231000000000000386e-03
4.324999999999999852e-03
4.364999999999999956e-03
4.297999999999999737e-03
4.218000000000000395e-03
4.227999999999999987e-03
4.311999999999999861e-03
4.355999999999999629e-03
4.288000000000000145e-03
4.211999999999999598e-03
4.224000000000000324e-03
4.307000000000000065e-03
4.353000000000000098e-03
4.285999999999999879e-03
4.205999999999999669e-03
4.220999999999999926e-03
4.309000000000000330e-03
4.347000000000000169e-03
4.277000000000000419e-03
4.203000000000000139e-03
4.218000000000000395e-03
4.308000000000000197e-03
4.350999999999999833e-03
4.277999999999999685e-03
4.198000000000000342e-03
4.213999999999999864e-03
4.302000000000000268e-03
4.350999999999999833e-03
4.279999999999999950e-03
4.197000000000000210e-03
4.207999999999999935e-03
4.300000000000000003e-03
4.338999999999999975e-03
4.264999999999999694e-03
4.192000000000000413e-03
4.210000000000000200e-03
4.298999999999999870e-03
4.342999999999999639e-03
4.276000000000000287e-03
4.193999999999999811e-03
4.205999999999999669e-03
4.295000000000000207e-03
4.331999999999999913e-03
4.263000000000000296e-03
4.192000000000000413e-03
4.203000000000000139e-03
4.288000000000000145e-03
4.335000000000000311e-03
4.270999999999999623e-03
4.192999999999999679e-03
4.203000000000000139e-03
4.294000000000000074e-03
4.335999999999999577e-03
4.263000000000000296e-03
4.189000000000000015e-03
4.200999999999999873e-03
4.295000000000000207e-03
4.338999999999999975e-03
4.274000000000000021e-03
4.192000000000000413e-03
4.205000000000000404e-03
4.295000000000000207e-03
4.340000000000000108e-03
4.276000000000000287e-03
4.202000000000000006e-03
4.213999999999999864e-03
4.300000000000000003e-03
4.341000000000000240e-03
4.275000000000000154e-03
4.198999999999999608e-03
4.209000000000000068e-03
4.296999999999999605e-03
4.335999999999999577e-03
4.276000000000000287e-03
4.198999999999999608e-03
4.212999999999999731e-03
4.304999999999999799e-03
4.348000000000000302e-03
4.284999999999999747e-03
4.207999999999999935e-03
4.216000000000000129e-03
4.307000000000000065e-03
4.362000000000000426e-03
4.303999999999999666e-03
4.244000000000000376e-03
4.271999999999999756e-03
4.367000000000000222e-03
4.400000000000000265e-03
4.328000000000000250e-03
4.249000000000000173e-03
4.272999999999999889e-03
4.380000000000000213e-03
4.451000000000000095e-03
4.394000000000000336e-03
4.302000000000000268e-03
4.294000000000000074e-03
4.375999999999999682e-03
4.408999999999999725e-03
4.336999999999999710e-03
4.244999999999999642e-03
4.238999999999999713e-03
4.318999999999999923e-03
4.355999999999999629e-03
4.284999999999999747e-03
4.202000000000000006e-03
4.211000000000000333e-03
4.302000000000000268e-03
4.348000000000000302e-03
4.279999999999999950e-03
4.207999999999999935e-03
4.222000000000000058e-03
4.309999999999999595e-03
4.356999999999999762e-03
4.278999999999999818e-03
4.147999999999999778e-03
4.082999999999999824e-03
4.151000000000000176e-03
4.237000000000000315e-03
4.191000000000000281e-03
4.236000000000000182e-03
4.558999999999999685e-03
5.030999999999999882e-03
5.434999999999999727e-03
5.793000000000000406e-03
5.779000000000000282e-03
5.519999999999999733e-03
5.334000000000000200e-03
5.070999999999999987e-03
4.735999999999999759e-03
4.479999999999999608e-03
4.396999999999999867e-03
4.428999999999999777e-03
4.440999999999999635e-03
4.373000000000000151e-03
4.300000000000000003e-03
4.295000000000000207e-03
4.367000000000000222e-03
4.406000000000000194e-03
4.335000000000000311e-03
4.244999999999999642e-03
4.253999999999999969e-03
4.337999999999999842e-03
4.382999999999999743e-03
4.321000000000000188e-03
4.238999999999999713e-03
4.240999999999999978e-03
4.328000000000000250e-03
4.375999999999999682e-03
4.310999999999999728e-03
4.237000000000000315e-03
4.244000000000000376e-03
4.333000000000000046e-03
4.375999999999999682e-03
4.312999999999999994e-03
4.233999999999999916e-03
4.238999999999999713e-03
4.324999999999999852e-03
4.370999999999999885e-03
4.309999999999999595e-03
4.229000000000000120e-03
4.231000000000000386e-03
4.317999999999999790e-03
4.366000000000000089e-03
4.305999999999999932e-03
4.224000000000000324e-03
4.227999999999999987e-03
4.316000000000000392e-03
4.356999999999999762e-03
4.303000000000000401e-03
4.231000000000000386e-03
4.237999999999999580e-03
4.328000000000000250e-03
4.383999999999999876e-03
4.316000000000000392e-03
4.237999999999999580e-03
4.249000000000000173e-03
4.338999999999999975e-03
4.388999999999999672e-03
4.335999999999999577e-03
4.261000000000000031e-03
4.270000000000000358e-03
4.375000000000000416e-03
4.429999999999999910e-03
4.374000000000000284e-03
4.302000000000000268e-03
4.316000000000000392e-03
4.421999999999999716e-03
4.484000000000000138e-03
4.429999999999999910e-03
4.361000000000000293e-03
4.385000000000000009e-03
4.485000000000000271e-03
4.540999999999999898e-03
4.490000000000000067e-03
4.419000000000000185e-03
4.435999999999999839e-03
4.531000000000000305e-03
4.583000000000000268e-03
4.521999999999999978e-03
4.440999999999999635e-03
4.439000000000000237e-03
4.508999999999999987e-03
4.537000000000000234e-03
4.458000000000000157e-03
4.351999999999999966e-03
4.335999999999999577e-03
4.399000000000000132e-03
4.428999999999999777e-03
4.343999999999999771e-03
4.253999999999999969e-03
4.243000000000000244e-03
4.316000000000000392e-03
4.360000000000000160e-03
4.285999999999999879e-03
4.194999999999999944e-03
4.193999999999999811e-03
4.274000000000000021e-03
4.320000000000000055e-03
4.257000000000000367e-03
4.174999999999999892e-03
4.183000000000000086e-03
4.268000000000000092e-03
4.321000000000000188e-03
4.261000000000000031e-03
4.176000000000000024e-03
4.178000000000000290e-03
4.264999999999999694e-03
4.317999999999999790e-03
4.250000000000000305e-03
4.166000000000000432e-03
4.178000000000000290e-03
4.261000000000000031e-03
4.309999999999999595e-03
4.250999999999999571e-03
4.166999999999999697e-03
4.170000000000000095e-03
4.257000000000000367e-03
4.303000000000000401e-03
4.239999999999999845e-03
4.155999999999999972e-03
4.158000000000000237e-03
4.245999999999999774e-03
4.296999999999999605e-03
4.235000000000000049e-03
4.152000000000000308e-03
4.151000000000000176e-03
4.238999999999999713e-03
4.285999999999999879e-03
4.227999999999999987e-03
4.139999999999999583e-03
4.138000000000000185e-03
4.240999999999999978e-03
4.292999999999999941e-03
4.224999999999999589e-03
4.141999999999999849e-03
4.142999999999999981e-03
4.229000000000000120e-03
4.275000000000000154e-03
4.218999999999999660e-03
4.138000000000000185e-03
4.139000000000000318e-03
4.222000000000000058e-03
4.268000000000000092e-03
4.205999999999999669e-03
4.125000000000000194e-03
4.131000000000000123e-03
4.218999999999999660e-03
4.268000000000000092e-03
4.200999999999999873e-03
4.124000000000000062e-03
4.129999999999999991e-03
4.211000000000000333e-03
4.257000000000000367e-03
4.194999999999999944e-03
4.114999999999999734e-03
4.118000000000000133e-03
4.198000000000000342e-03
4.257000000000000367e-03
4.204000000000000271e-03
4.120999999999999663e-03
4.120000000000000398e-03
4.205999999999999669e-03
4.259999999999999898e-03
4.196000000000000077e-03
4.109999999999999938e-03
4.113000000000000336e-03
4.200999999999999873e-03
4.255000000000000102e-03
4.197000000000000210e-03
4.113999999999999602e-03
4.107999999999999673e-03
4.192999999999999679e-03
4.251999999999999703e-03
4.192000000000000413e-03
4.101999999999999744e-03
4.107000000000000407e-03
4.196000000000000077e-03
4.245999999999999774e-03
4.187999999999999882e-03
4.099000000000000213e-03
4.096999999999999947e-03
4.192999999999999679e-03
4.249000000000000173e-03
4.186999999999999750e-03
4.109999999999999938e-03
4.113000000000000336e-03
4.196000000000000077e-03
4.246999999999999907e-03
4.181999999999999953e-03
4.096999999999999947e-03
4.100000000000000346e-03
4.192000000000000413e-03
4.237999999999999580e-03
4.180999999999999821e-03
4.094000000000000417e-03
4.096999999999999947e-03
4.186999999999999750e-03
4.239999999999999845e-03
4.184000000000000219e-03
4.102999999999999876e-03
4.098000000000000080e-03
4.186999999999999750e-03
4.244000000000000376e-03
4.184000000000000219e-03
4.098000000000000080e-03
4.098000000000000080e-03
4.184000000000000219e-03
4.238999999999999713e-03
4.183000000000000086e-03
4.095999999999999815e-03
4.091000000000000018e-03
4.180999999999999821e-03
4.231999999999999651e-03
4.180999999999999821e-03
4.093000000000000284e-03
4.094999999999999682e-03
4.177000000000000157e-03
4.229000000000000120e-03
4.174999999999999892e-03
4.091000000000000018e-03
4.093000000000000284e-03
4.172000000000000361e-03
4.229000000000000120e-03
4.171000000000000228e-03
4.088999999999999753e-03
4.091000000000000018e-03
4.197000000000000210e-03
4.264999999999999694e-03
4.217000000000000262e-03
4.139999999999999583e-03
4.139000000000000318e-03
4.213999999999999864e-03
4.268000000000000092e-03
4.224999999999999589e-03
4.159000000000000370e-03
4.179000000000000423e-03
4.277999999999999685e-03
4.323999999999999719e-03
4.248000000000000040e-03
4.153999999999999707e-03
4.139000000000000318e-03
4.214999999999999997e-03
4.256000000000000234e-03
4.174999999999999892e-03
4.074999999999999629e-03
4.070999999999999966e-03
4.150000000000000043e-03
4.205000000000000404e-03
4.145000000000000247e-03
4.060000000000000241e-03
4.056999999999999842e-03
4.144000000000000114e-03
4.192000000000000413e-03
4.134999999999999787e-03
4.053000000000000179e-03
4.046000000000000117e-03
4.126999999999999592e-03
4.133000000000000389e-03
3.997999999999999818e-03
3.870999999999999875e-03
3.906000000000000184e-03
4.010999999999999809e-03
4.177000000000000157e-03
4.405000000000000061e-03
4.728999999999999697e-03
5.093999999999999570e-03
5.577999999999999625e-03
5.683999999999999816e-03
5.320000000000000076e-03
4.945999999999999876e-03
4.618999999999999842e-03
4.462999999999999953e-03
4.374000000000000284e-03
4.242000000000000111e-03
4.117000000000000000e-03
4.083999999999999957e-03
4.159999999999999636e-03
4.220999999999999926e-03
4.166000000000000432e-03
4.074999999999999629e-03
4.060000000000000241e-03
4.139000000000000318e-03
4.192999999999999679e-03
4.134999999999999787e-03
4.046000000000000117e-03
4.039000000000000055e-03
4.124000000000000062e-03
4.177000000000000157e-03
4.120000000000000398e-03
4.039000000000000055e-03
4.028999999999999596e-03
4.107000000000000407e-03
4.176000000000000024e-03
4.114999999999999734e-03
4.029999999999999728e-03
4.022999999999999667e-03
4.107000000000000407e-03
4.165000000000000299e-03
4.113999999999999602e-03
4.035000000000000392e-03
4.024999999999999932e-03
4.105000000000000142e-03
4.166000000000000432e-03
4.112000000000000204e-03
4.027000000000000197e-03
4.015999999999999605e-03
4.101999999999999744e-03
4.159000000000000370e-03
4.108999999999999805e-03
4.028000000000000330e-03
4.020000000000000136e-03
4.105000000000000142e-03
4.161999999999999901e-03
4.108999999999999805e-03
4.023999999999999799e-03
4.024999999999999932e-03
4.117000000000000000e-03
4.176000000000000024e-03
4.126000000000000327e-03
4.046000000000000117e-03
4.037999999999999923e-03
4.132000000000000256e-03
4.193999999999999811e-03
4.148999999999999910e-03
4.074000000000000364e-03
4.074999999999999629e-03
4.165000000000000299e-03
4.230000000000000253e-03
4.187999999999999882e-03
4.115999999999999867e-03
4.120999999999999663e-03
4.219999999999999793e-03
4.290000000000000410e-03
4.249000000000000173e-03
4.179000000000000423e-03
4.180999999999999821e-03
4.272999999999999889e-03
4.340000000000000108e-03
4.302000000000000268e-03
4.231000000000000386e-03
4.226999999999999855e-03
4.316000000000000392e-03
4.368000000000000355e-03
4.305999999999999932e-03
4.203000000000000139e-03
4.172999999999999626e-03
4.230000000000000253e-03
4.264000000000000429e-03
4.190000000000000148e-03
4.080000000000000293e-03
4.048999999999999648e-03
4.108999999999999805e-03
4.155999999999999972e-03
4.094000000000000417e-03
3.995000000000000287e-03
3.972999999999999969e-03
4.044999999999999984e-03
4.089999999999999886e-03
4.035999999999999657e-03
3.949000000000000253e-03
3.931999999999999731e-03
4.013000000000000074e-03
4.069999999999999833e-03
4.022999999999999667e-03
3.932999999999999864e-03
3.924000000000000404e-03
4.004999999999999880e-03
4.062999999999999771e-03
4.009999999999999676e-03
3.921000000000000006e-03
3.909000000000000148e-03
3.997999999999999818e-03
4.055999999999999710e-03
4.002999999999999614e-03
3.912999999999999812e-03
3.902000000000000086e-03
3.984999999999999827e-03
4.041999999999999586e-03
3.983000000000000429e-03
3.896000000000000157e-03
3.889000000000000096e-03
3.968000000000000173e-03
4.023999999999999799e-03
3.976999999999999633e-03
3.889000000000000096e-03
3.880000000000000202e-03
3.964999999999999775e-03
4.021000000000000268e-03
3.969999999999999571e-03
3.880999999999999901e-03
3.866000000000000079e-03
3.943999999999999589e-03
4.006000000000000012e-03
3.954000000000000049e-03
3.867000000000000211e-03
3.857000000000000185e-03
3.937000000000000395e-03
3.994000000000000154e-03
3.950999999999999651e-03
3.860999999999999849e-03
3.840999999999999796e-03
3.925999999999999802e-03
3.980000000000000031e-03
3.925999999999999802e-03
3.834999999999999867e-03
3.825999999999999974e-03
3.909000000000000148e-03
3.968000000000000173e-03
3.919999999999999873e-03
3.833000000000000036e-03
3.815999999999999948e-03
3.895000000000000025e-03
3.958999999999999846e-03
3.905000000000000051e-03
3.818000000000000213e-03
3.801000000000000125e-03
3.877999999999999937e-03
3.936000000000000262e-03
3.887999999999999963e-03
3.801000000000000125e-03
3.791999999999999798e-03
3.873000000000000140e-03
3.921000000000000006e-03
3.873999999999999840e-03
3.787000000000000002e-03
3.771000000000000046e-03
3.848999999999999991e-03
3.906999999999999883e-03
3.856000000000000053e-03
3.769999999999999914e-03
3.755000000000000091e-03
3.831000000000000204e-03
3.893000000000000193e-03
3.843000000000000062e-03
3.750999999999999994e-03
3.733000000000000207e-03
3.812999999999999983e-03
3.870999999999999875e-03
3.818999999999999912e-03
3.723999999999999880e-03
3.710999999999999889e-03
3.791000000000000099e-03
3.840999999999999796e-03
3.791999999999999798e-03
3.704999999999999960e-03
3.690000000000000138e-03
3.769999999999999914e-03
3.827999999999999806e-03
3.772999999999999878e-03
3.678999999999999979e-03
3.670999999999999784e-03
3.750999999999999994e-03
3.807000000000000054e-03
3.755000000000000091e-03
3.665999999999999988e-03
3.648000000000000201e-03
3.732000000000000074e-03
3.788000000000000134e-03
3.729000000000000110e-03
3.638000000000000175e-03
3.622999999999999918e-03
3.704999999999999960e-03
3.762000000000000153e-03
3.704999999999999960e-03
3.621000000000000087e-03
3.602000000000000167e-03
3.683000000000000076e-03
3.746000000000000198e-03
3.696000000000000067e-03
3.598000000000000070e-03
3.572999999999999787e-03
3.654000000000000130e-03
3.726999999999999844e-03
3.699000000000000031e-03
3.625999999999999883e-03
3.624000000000000051e-03
3.710000000000000190e-03
3.761000000000000020e-03
3.706000000000000093e-03
3.621000000000000087e-03
3.608999999999999795e-03
3.703000000000000128e-03
3.782999999999999904e-03
3.742999999999999799e-03
3.641000000000000139e-03
3.609999999999999928e-03
3.677000000000000147e-03
3.730999999999999941e-03
3.674999999999999881e-03
3.578000000000000017e-03
3.544999999999999974e-03
3.603999999999999999e-03
3.654000000000000130e-03
3.602999999999999866e-03
3.514999999999999895e-03
3.490000000000000047e-03
3.566999999999999858e-03
3.628000000000000148e-03
3.583999999999999946e-03
3.491000000000000179e-03
3.474000000000000091e-03
3.556000000000000133e-03
3.618999999999999821e-03
3.569999999999999823e-03
3.445999999999999844e-03
3.360999999999999838e-03
3.383999999999999855e-03
3.475999999999999923e-03
3.468000000000000162e-03
3.461999999999999800e-03
3.700000000000000164e-03
4.139000000000000318e-03
4.560999999999999950e-03
4.911999999999999700e-03
5.076999999999999916e-03
4.836000000000000021e-03
4.628000000000000169e-03
4.381999999999999611e-03
4.029999999999999728e-03
3.742000000000000100e-03
3.618000000000000122e-03
3.634000000000000077e-03
3.652999999999999997e-03
3.599999999999999901e-03
3.527000000000000187e-03
3.497000000000000108e-03
3.565000000000000027e-03
3.616999999999999989e-03
3.567999999999999991e-03
3.471999999999999826e-03
3.446999999999999977e-03
3.527000000000000187e-03
3.586000000000000212e-03
3.539000000000000045e-03
3.452999999999999906e-03
3.429999999999999889e-03
3.504000000000000170e-03
3.570999999999999956e-03
3.524999999999999922e-03
3.433999999999999986e-03
3.410999999999999970e-03
3.487000000000000082e-03
3.553000000000000169e-03
3.507000000000000135e-03
3.415000000000000067e-03
3.395000000000000014e-03
3.484999999999999817e-03
3.546999999999999806e-03
3.504000000000000170e-03
3.419999999999999863e-03
3.400999999999999943e-03
3.480000000000000020e-03
3.542000000000000010e-03
3.491999999999999878e-03
3.399000000000000112e-03
3.379000000000000059e-03
3.458000000000000136e-03
3.527999999999999886e-03
3.491000000000000179e-03
3.399000000000000112e-03
3.382000000000000024e-03
3.461999999999999800e-03
3.523999999999999789e-03
3.484000000000000118e-03
3.399999999999999811e-03
3.383999999999999855e-03
3.461000000000000101e-03
3.529000000000000019e-03
3.494999999999999843e-03
3.409999999999999837e-03
3.393999999999999882e-03
3.481000000000000153e-03
3.550999999999999903e-03
3.516000000000000028e-03
3.433999999999999986e-03
3.432000000000000155e-03
3.523000000000000090e-03
3.602000000000000167e-03
3.569000000000000124e-03
3.491999999999999878e-03
3.480000000000000020e-03
3.570999999999999956e-03
3.647000000000000068e-03
3.615999999999999857e-03
3.534999999999999948e-03
3.523999999999999789e-03
3.615999999999999857e-03
3.684999999999999908e-03
3.641000000000000139e-03
3.544999999999999974e-03
3.516000000000000028e-03
3.572999999999999787e-03
3.619999999999999954e-03
3.560999999999999929e-03
3.457000000000000003e-03
3.410999999999999970e-03
3.467000000000000030e-03
3.507999999999999834e-03
3.449999999999999942e-03
3.344000000000000184e-03
3.307000000000000044e-03
3.369000000000000033e-03
3.420999999999999996e-03
3.370999999999999865e-03
3.274000000000000000e-03
3.246999999999999886e-03
3.320000000000000034e-03
3.380000000000000192e-03
3.340999999999999786e-03
3.250999999999999984e-03
3.229000000000000099e-03
3.301999999999999814e-03
3.367999999999999900e-03
3.327000000000000096e-03
3.232000000000000064e-03
3.207000000000000215e-03
3.278999999999999797e-03
3.354999999999999909e-03
3.318000000000000203e-03
3.225000000000000002e-03
3.201999999999999985e-03
3.278999999999999797e-03
3.346000000000000016e-03
3.301999999999999814e-03
3.210999999999999879e-03
3.184999999999999897e-03
3.262000000000000142e-03
3.334000000000000158e-03
3.301000000000000115e-03
3.207000000000000215e-03
3.180000000000000101e-03
3.259000000000000178e-03
3.322999999999999999e-03
3.285999999999999859e-03
3.200000000000000153e-03
3.171000000000000207e-03
3.245000000000000055e-03
3.314999999999999804e-03
3.275000000000000133e-03
3.184000000000000198e-03
3.160000000000000048e-03
3.237999999999999993e-03
3.301000000000000115e-03
3.265999999999999806e-03
3.176000000000000004e-03
3.148999999999999889e-03
3.225000000000000002e-03
3.288999999999999823e-03
3.253999999999999948e-03
3.158999999999999916e-03
3.135999999999999899e-03
3.209000000000000047e-03
3.278000000000000098e-03
3.239999999999999825e-03
3.160000000000000048e-03
3.124000000000000041e-03
3.194999999999999923e-03
3.258000000000000045e-03
3.216999999999999808e-03
3.122999999999999908e-03
3.096999999999999927e-03
3.177999999999999835e-03
3.250999999999999984e-03
3.207999999999999914e-03
3.111000000000000050e-03
3.089000000000000166e-03
3.161999999999999880e-03
3.230999999999999931e-03
3.194999999999999923e-03
3.106999999999999953e-03
3.075000000000000042e-03
3.142999999999999960e-03
3.210000000000000180e-03
3.186000000000000030e-03
3.095000000000000095e-03
3.063000000000000184e-03
3.131000000000000102e-03
3.200000000000000153e-03
3.167000000000000110e-03
3.078000000000000007e-03
3.056000000000000123e-03
3.127000000000000005e-03
3.193999999999999791e-03
3.157000000000000084e-03
3.059000000000000087e-03
3.041999999999999999e-03
3.115999999999999846e-03
3.184999999999999897e-03
3.151999999999999854e-03
3.063999999999999883e-03
3.027999999999999876e-03
3.099999999999999891e-03
3.174000000000000172e-03
3.135999999999999899e-03
3.046999999999999795e-03
3.017000000000000150e-03
3.092999999999999829e-03
3.158999999999999916e-03
3.128000000000000138e-03
3.039000000000000035e-03
3.003000000000000027e-03
3.075000000000000042e-03
3.152999999999999987e-03
3.116999999999999979e-03
3.024999999999999911e-03
2.997999999999999797e-03
3.065000000000000016e-03
3.122000000000000209e-03
3.092999999999999829e-03
3.010000000000000089e-03
2.980000000000000010e-03
3.056999999999999822e-03
3.122999999999999908e-03
3.088000000000000033e-03
2.998999999999999930e-03
2.968999999999999851e-03
3.041999999999999999e-03
3.114000000000000015e-03
3.082999999999999803e-03
2.988999999999999903e-03
2.955999999999999860e-03
3.029000000000000008e-03
3.103999999999999988e-03
3.069999999999999812e-03
2.978000000000000178e-03
2.945000000000000135e-03
3.018999999999999982e-03
3.093999999999999962e-03
3.062000000000000052e-03
2.974000000000000081e-03
2.954000000000000029e-03
3.024000000000000212e-03
3.102999999999999856e-03
3.069999999999999812e-03
2.971000000000000116e-03
2.948000000000000100e-03
3.020999999999999814e-03
3.092999999999999829e-03
3.063000000000000184e-03
2.972999999999999948e-03
2.941000000000000038e-03
3.017999999999999849e-03
3.086999999999999900e-03
3.063000000000000184e-03
2.974000000000000081e-03
2.939000000000000206e-03
3.013000000000000053e-03
3.086999999999999900e-03
3.054999999999999990e-03
2.962999999999999922e-03
2.936999999999999941e-03
3.024000000000000212e-03
3.115999999999999846e-03
3.096999999999999927e-03
3.021999999999999947e-03
2.995999999999999965e-03
3.057999999999999954e-03
3.125999999999999873e-03
3.095000000000000095e-03
3.017000000000000150e-03
3.013000000000000053e-03
3.114000000000000015e-03
3.177000000000000136e-03
3.128999999999999837e-03
3.027999999999999876e-03
2.988000000000000204e-03
3.049000000000000061e-03
3.114000000000000015e-03
3.080999999999999971e-03
2.978000000000000178e-03
2.936999999999999941e-03
3.003000000000000027e-03
3.065000000000000016e-03
3.037000000000000203e-03
2.946999999999999967e-03
2.916999999999999888e-03
2.990000000000000036e-03
3.065000000000000016e-03
3.034999999999999937e-03
2.945999999999999834e-03
2.918000000000000021e-03
2.991999999999999868e-03
3.046000000000000096e-03
2.951000000000000064e-03
2.792000000000000211e-03
2.775999999999999822e-03
2.886999999999999809e-03
3.026000000000000044e-03
3.216999999999999808e-03
3.484999999999999817e-03
3.801999999999999824e-03
4.265999999999999827e-03
4.684999999999999928e-03
4.497000000000000129e-03
4.118000000000000133e-03
3.802999999999999957e-03
3.567999999999999991e-03
3.416999999999999899e-03
3.258000000000000045e-03
3.101000000000000024e-03
3.020999999999999814e-03
3.073999999999999910e-03
3.154000000000000119e-03
3.122000000000000209e-03
3.023000000000000079e-03
2.978999999999999877e-03
3.043999999999999831e-03
3.118000000000000112e-03
3.086000000000000201e-03
2.998999999999999930e-03
2.961999999999999789e-03
3.024999999999999911e-03
3.096999999999999927e-03
3.076000000000000175e-03
2.994000000000000133e-03
2.959999999999999958e-03
3.029000000000000008e-03
3.105999999999999820e-03
3.082000000000000104e-03
2.988000000000000204e-03
2.956999999999999993e-03
3.033000000000000106e-03
3.106999999999999953e-03
3.086000000000000201e-03
2.994999999999999832e-03
2.964000000000000055e-03
3.031999999999999973e-03
3.108000000000000086e-03
3.086999999999999900e-03
3.001999999999999894e-03
2.967000000000000019e-03
3.036000000000000070e-03
3.116999999999999979e-03
3.095999999999999794e-03
3.007999999999999823e-03
2.971999999999999816e-03
3.044999999999999964e-03
3.128000000000000138e-03
3.109999999999999917e-03
3.020999999999999814e-03
2.990000000000000036e-03
3.066999999999999848e-03
3.142999999999999960e-03
3.118000000000000112e-03
3.037999999999999902e-03
3.008999999999999956e-03
3.085000000000000069e-03
3.171000000000000207e-03
3.154000000000000119e-03
3.076000000000000175e-03
3.050999999999999893e-03
3.125999999999999873e-03
3.210999999999999879e-03
3.207000000000000215e-03
3.137000000000000031e-03
3.115000000000000147e-03
3.197000000000000189e-03
3.282000000000000195e-03
3.282000000000000195e-03
3.206000000000000082e-03
3.184000000000000198e-03
3.265000000000000107e-03
3.357000000000000175e-03
3.350000000000000113e-03
3.272000000000000169e-03
3.246999999999999886e-03
3.322999999999999999e-03
3.396999999999999846e-03
3.373000000000000130e-03
3.275999999999999832e-03
3.222000000000000038e-03
3.269000000000000204e-03
3.324000000000000132e-03
3.282000000000000195e-03
3.164000000000000146e-03
3.109999999999999917e-03
3.165999999999999977e-03
3.223000000000000170e-03
3.187999999999999862e-03
3.085000000000000069e-03
3.040000000000000167e-03
3.106999999999999953e-03
3.174000000000000172e-03
3.144000000000000093e-03
3.062000000000000052e-03
3.024000000000000212e-03
3.088000000000000033e-03
3.157000000000000084e-03
3.135999999999999899e-03
3.047999999999999928e-03
3.010000000000000089e-03
3.079000000000000140e-03
3.160000000000000048e-03
3.141000000000000129e-03
3.053999999999999857e-03
3.017999999999999849e-03
3.083999999999999936e-03
3.161000000000000181e-03
3.139999999999999996e-03
3.056000000000000123e-03
3.018999999999999982e-03
3.085000000000000069e-03
3.161999999999999880e-03
3.148000000000000190e-03
3.056000000000000123e-03
3.013000000000000053e-03
3.082000000000000104e-03
3.154999999999999818e-03
3.138999999999999863e-03
3.053999999999999857e-03
3.017999999999999849e-03
3.086999999999999900e-03
3.167000000000000110e-03
3.147000000000000058e-03
3.060999999999999919e-03
3.027000000000000177e-03
3.093999999999999962e-03
3.167999999999999809e-03
3.148000000000000190e-03
3.056999999999999822e-03
3.017999999999999849e-03
3.092000000000000130e-03
3.173000000000000039e-03
3.154000000000000119e-03
3.060999999999999919e-03
3.020999999999999814e-03
3.089000000000000166e-03
3.164999999999999845e-03
3.144000000000000093e-03
3.057999999999999954e-03
3.020999999999999814e-03
3.088000000000000033e-03
3.165999999999999977e-03
3.141999999999999828e-03
3.054999999999999990e-03
3.023000000000000079e-03
3.088000000000000033e-03
3.174000000000000172e-03
3.160000000000000048e-03
3.066999999999999848e-03
3.029000000000000008e-03
3.092999999999999829e-03
3.170000000000000075e-03
3.160000000000000048e-03
3.072000000000000078e-03
3.029000000000000008e-03
3.095000000000000095e-03
3.177000000000000136e-03
3.163000000000000013e-03
3.073999999999999910e-03
3.033000000000000106e-03
3.095999999999999794e-03
3.174999999999999871e-03
3.164000000000000146e-03
3.075000000000000042e-03
3.039000000000000035e-03
3.105000000000000121e-03
3.183000000000000065e-03
3.168999999999999942e-03
3.076999999999999874e-03
3.040000000000000167e-03
3.105000000000000121e-03
3.186000000000000030e-03
3.167000000000000110e-03
3.082000000000000104e-03
